EXPERIMENT FILE
Version = 2

[ Experiment Parameters ]
Experiment Description= <none> 
Number_of_Regions_in_Experiment= 1 

Original_File_name= C:\alexesca\data\0123Theta0.xps 
Instrument= HP ESCA West
Date= 01-24-2013
Time=  10:05:20

[ Layer Parameters ]
Layer_Type= XPS

[ Region 1 Parameters ]
Region_Description = Au 4f Dithered 94eV Center 9.2eV Width
BEcenter(eV) = 94.000000
BEwidth(eV) = 9.200000
BEstep(eV) = 0.035938
Dwell_Time(sec) = 1.000000
N_o_scans = 1  
N_o_Channels = 256  
Scan_mode = 0  (DITHERED)

[ L= 1 R= 1 ]
BEcenter= 94.000  
BEwidth= -9.164  
Excitation= 1486.600
Time_p_channel= 256.000 
Size= 256
98.582   1.20200000e+03 
98.546   1.15400000e+03 
98.510   1.21000000e+03 
98.474   1.26100000e+03 
98.438   1.29000000e+03 
98.402   1.20100000e+03 
98.366   1.24300000e+03 
98.330   1.28300000e+03 
98.295   1.17300000e+03 
98.259   1.23300000e+03 
98.223   1.25200000e+03 
98.187   1.26000000e+03 
98.151   1.28900000e+03 
98.115   1.25900000e+03 
98.079   1.33400000e+03 
98.043   1.28300000e+03 
98.007   1.33000000e+03 
97.971   1.34600000e+03 
97.935   1.32900000e+03 
97.899   1.34000000e+03 
97.863   1.27600000e+03 
97.827   1.28300000e+03 
97.791   1.39300000e+03 
97.755   1.41300000e+03 
97.720   1.33000000e+03 
97.684   1.29400000e+03 
97.648   1.36400000e+03 
97.612   1.38800000e+03 
97.576   1.38700000e+03 
97.540   1.46500000e+03 
97.504   1.46700000e+03 
97.468   1.43500000e+03 
97.432   1.42300000e+03 
97.396   1.49600000e+03 
97.360   1.52100000e+03 
97.324   1.48600000e+03 
97.288   1.52700000e+03 
97.252   1.58700000e+03 
97.216   1.63400000e+03 
97.180   1.68300000e+03 
97.145   1.63500000e+03 
97.109   1.61800000e+03 
97.073   1.73500000e+03 
97.037   1.84500000e+03 
97.001   1.89600000e+03 
96.965   1.85500000e+03 
96.929   1.90400000e+03 
96.893   1.98800000e+03 
96.857   2.14700000e+03 
96.821   2.02200000e+03 
96.785   2.21700000e+03 
96.749   2.34400000e+03 
96.713   2.33400000e+03 
96.677   2.47200000e+03 
96.641   2.64100000e+03 
96.605   2.62700000e+03 
96.570   2.72300000e+03 
96.534   2.87100000e+03 
96.498   2.85800000e+03 
96.462   3.07100000e+03 
96.426   3.20500000e+03 
96.390   3.40200000e+03 
96.354   3.46000000e+03 
96.318   3.72500000e+03 
96.282   3.81900000e+03 
96.246   3.95400000e+03 
96.210   4.21600000e+03 
96.174   4.53500000e+03 
96.138   4.46000000e+03 
96.102   4.83900000e+03 
96.066   4.99700000e+03 
96.030   5.12600000e+03 
95.995   5.31900000e+03 
95.959   5.53100000e+03 
95.923   5.66800000e+03 
95.887   5.82300000e+03 
95.851   6.05900000e+03 
95.815   6.29600000e+03 
95.779   6.40100000e+03 
95.743   6.67900000e+03 
95.707   6.74000000e+03 
95.671   6.99100000e+03 
95.635   7.00000000e+03 
95.599   7.09000000e+03 
95.563   7.32100000e+03 
95.527   7.29400000e+03 
95.491   7.37800000e+03 
95.455   7.28400000e+03 
95.420   7.25900000e+03 
95.384   7.04000000e+03 
95.348   7.19800000e+03 
95.312   6.87200000e+03 
95.276   6.80800000e+03 
95.240   6.73900000e+03 
95.204   6.32700000e+03 
95.168   6.12000000e+03 
95.132   6.09100000e+03 
95.096   5.52400000e+03 
95.060   5.43400000e+03 
95.024   5.03400000e+03 
94.988   4.71200000e+03 
94.952   4.45300000e+03 
94.916   4.10900000e+03 
94.880   3.86200000e+03 
94.845   3.57900000e+03 
94.809   3.32500000e+03 
94.773   3.06600000e+03 
94.737   2.88300000e+03 
94.701   2.79500000e+03 
94.665   2.56900000e+03 
94.629   2.47200000e+03 
94.593   2.26200000e+03 
94.557   2.24600000e+03 
94.521   2.03000000e+03 
94.485   1.93000000e+03 
94.449   1.90600000e+03 
94.413   1.83600000e+03 
94.377   1.80400000e+03 
94.341   1.67200000e+03 
94.305   1.61700000e+03 
94.270   1.53600000e+03 
94.234   1.50800000e+03 
94.198   1.45500000e+03 
94.162   1.47900000e+03 
94.126   1.46000000e+03 
94.090   1.42800000e+03 
94.054   1.49600000e+03 
94.018   1.42200000e+03 
93.982   1.51200000e+03 
93.946   1.39200000e+03 
93.910   1.40000000e+03 
93.874   1.38700000e+03 
93.838   1.39400000e+03 
93.802   1.32000000e+03 
93.766   1.43900000e+03 
93.730   1.42900000e+03 
93.695   1.42400000e+03 
93.659   1.41200000e+03 
93.623   1.43700000e+03 
93.587   1.54000000e+03 
93.551   1.54600000e+03 
93.515   1.50800000e+03 
93.479   1.58400000e+03 
93.443   1.70200000e+03 
93.407   1.64100000e+03 
93.371   1.65200000e+03 
93.335   1.80100000e+03 
93.299   1.92900000e+03 
93.263   1.93100000e+03 
93.227   2.00300000e+03 
93.191   2.00900000e+03 
93.155   2.03300000e+03 
93.120   2.13200000e+03 
93.084   2.24600000e+03 
93.048   2.35000000e+03 
93.012   2.36800000e+03 
92.976   2.63500000e+03 
92.940   2.71400000e+03 
92.904   2.84300000e+03 
92.868   2.99200000e+03 
92.832   3.12200000e+03 
92.796   3.25100000e+03 
92.760   3.46500000e+03 
92.724   3.57200000e+03 
92.688   3.74900000e+03 
92.652   3.89500000e+03 
92.616   4.14000000e+03 
92.580   4.36900000e+03 
92.545   4.57000000e+03 
92.509   4.85700000e+03 
92.473   4.92200000e+03 
92.437   5.27000000e+03 
92.401   5.54600000e+03 
92.365   5.68800000e+03 
92.329   6.12000000e+03 
92.293   6.29400000e+03 
92.257   6.42800000e+03 
92.221   6.79200000e+03 
92.185   6.88800000e+03 
92.149   7.33900000e+03 
92.113   7.45600000e+03 
92.077   7.80200000e+03 
92.041   7.91000000e+03 
92.005   8.25900000e+03 
91.970   8.34500000e+03 
91.934   8.52800000e+03 
91.898   8.68900000e+03 
91.862   8.71600000e+03 
91.826   8.93400000e+03 
91.790   8.92700000e+03 
91.754   8.85000000e+03 
91.718   8.97500000e+03 
91.682   8.69600000e+03 
91.646   8.40800000e+03 
91.610   8.43500000e+03 
91.574   8.21000000e+03 
91.538   7.99400000e+03 
91.502   7.48500000e+03 
91.466   7.23600000e+03 
91.430   7.02200000e+03 
91.395   6.52900000e+03 
91.359   6.12400000e+03 
91.323   5.82600000e+03 
91.287   5.40500000e+03 
91.251   4.97800000e+03 
91.215   4.58700000e+03 
91.179   4.32300000e+03 
91.143   3.96800000e+03 
91.107   3.56900000e+03 
91.071   3.30100000e+03 
91.035   2.97500000e+03 
90.999   2.77900000e+03 
90.963   2.40300000e+03 
90.927   2.28100000e+03 
90.891   2.04900000e+03 
90.855   1.92400000e+03 
90.820   1.73500000e+03 
90.784   1.62600000e+03 
90.748   1.54300000e+03 
90.712   1.39900000e+03 
90.676   1.28500000e+03 
90.640   1.24200000e+03 
90.604   1.15400000e+03 
90.568   1.11500000e+03 
90.532   1.01600000e+03 
90.496   1.03300000e+03 
90.460   9.46000000e+02 
90.424   9.49000000e+02 
90.388   9.05000000e+02 
90.352   8.12000000e+02 
90.316   8.76000000e+02 
90.280   7.97000000e+02 
90.245   8.75000000e+02 
90.209   7.98000000e+02 
90.173   7.95000000e+02 
90.137   7.19000000e+02 
90.101   7.14000000e+02 
90.065   6.80000000e+02 
90.029   6.48000000e+02 
89.993   6.71000000e+02 
89.957   6.93000000e+02 
89.921   6.59000000e+02 
89.885   6.43000000e+02 
89.849   7.18000000e+02 
89.813   6.34000000e+02 
89.777   6.21000000e+02 
89.741   6.23000000e+02 
89.705   5.58000000e+02 
89.670   6.06000000e+02 
89.634   5.90000000e+02 
89.598   5.35000000e+02 
89.562   5.82000000e+02 
89.526   5.40000000e+02 
89.490   5.63000000e+02 
89.454   5.89000000e+02 
89.418   5.65000000e+02 

