EXPERIMENT FILE
Version = 2

[ Experiment Parameters ]
Experiment Description= <none> 
Number_of_Regions_in_Experiment= 1 

Original_File_name= C:\alexesca\data\0123Theta5.xps 
Instrument= HP ESCA West
Date= 01-23-2013
Time=  11:48:14

[ Layer Parameters ]
Layer_Type= XPS

[ Region 1 Parameters ]
Region_Description = Au 4f Dithered 95eV Center 9.2eV Width
BEcenter(eV) = 95.000000
BEwidth(eV) = 9.200000
BEstep(eV) = 0.035938
Dwell_Time(sec) = 1.000000
N_o_scans = 1  
N_o_Channels = 256  
Scan_mode = 0  (DITHERED)

[ L= 1 R= 1 ]
BEcenter= 95.000  
BEwidth= -9.164  
Excitation= 1486.600
Time_p_channel= 256.000 
Size= 256
99.582   9.80000000e+02 
99.546   1.00500000e+03 
99.510   1.03000000e+03 
99.474   9.28000000e+02 
99.438   9.57000000e+02 
99.402   9.71000000e+02 
99.366   1.00200000e+03 
99.330   9.43000000e+02 
99.295   9.92000000e+02 
99.259   9.92000000e+02 
99.223   9.80000000e+02 
99.187   1.01000000e+03 
99.151   9.79000000e+02 
99.115   9.81000000e+02 
99.079   1.00600000e+03 
99.043   9.96000000e+02 
99.007   9.75000000e+02 
98.971   9.98000000e+02 
98.935   9.97000000e+02 
98.899   1.01500000e+03 
98.863   1.04700000e+03 
98.827   1.02400000e+03 
98.791   9.89000000e+02 
98.755   9.38000000e+02 
98.720   1.03300000e+03 
98.684   1.03500000e+03 
98.648   9.88000000e+02 
98.612   1.07200000e+03 
98.576   9.86000000e+02 
98.540   1.01800000e+03 
98.504   1.08900000e+03 
98.468   1.00400000e+03 
98.432   1.05500000e+03 
98.396   9.91000000e+02 
98.360   1.05900000e+03 
98.324   1.04200000e+03 
98.288   1.02800000e+03 
98.252   1.00400000e+03 
98.216   1.05800000e+03 
98.180   1.04300000e+03 
98.145   1.12100000e+03 
98.109   1.03600000e+03 
98.073   1.11300000e+03 
98.037   1.09400000e+03 
98.001   1.08300000e+03 
97.965   1.09200000e+03 
97.929   1.04500000e+03 
97.893   1.10300000e+03 
97.857   1.11900000e+03 
97.821   1.10500000e+03 
97.785   1.17100000e+03 
97.749   1.10000000e+03 
97.713   1.09000000e+03 
97.677   1.22100000e+03 
97.641   1.08700000e+03 
97.605   1.16500000e+03 
97.570   1.19800000e+03 
97.534   1.18500000e+03 
97.498   1.14100000e+03 
97.462   1.30900000e+03 
97.426   1.24900000e+03 
97.390   1.24600000e+03 
97.354   1.22200000e+03 
97.318   1.29400000e+03 
97.282   1.37000000e+03 
97.246   1.38300000e+03 
97.210   1.39000000e+03 
97.174   1.41000000e+03 
97.138   1.43500000e+03 
97.102   1.52700000e+03 
97.066   1.60200000e+03 
97.030   1.63100000e+03 
96.995   1.69400000e+03 
96.959   1.74400000e+03 
96.923   1.83200000e+03 
96.887   1.89900000e+03 
96.851   1.87300000e+03 
96.815   1.95100000e+03 
96.779   2.12900000e+03 
96.743   2.12300000e+03 
96.707   2.25000000e+03 
96.671   2.40500000e+03 
96.635   2.53500000e+03 
96.599   2.63500000e+03 
96.563   2.78200000e+03 
96.527   2.86300000e+03 
96.491   3.02100000e+03 
96.455   3.23100000e+03 
96.420   3.38100000e+03 
96.384   3.52400000e+03 
96.348   3.64900000e+03 
96.312   3.82900000e+03 
96.276   3.88400000e+03 
96.240   4.17400000e+03 
96.204   4.28900000e+03 
96.168   4.59900000e+03 
96.132   4.78400000e+03 
96.096   4.85800000e+03 
96.060   5.08500000e+03 
96.024   5.31300000e+03 
95.988   5.43500000e+03 
95.952   5.56600000e+03 
95.916   5.71400000e+03 
95.880   5.90600000e+03 
95.845   5.80000000e+03 
95.809   5.86000000e+03 
95.773   5.92600000e+03 
95.737   6.22200000e+03 
95.701   6.21900000e+03 
95.665   5.98600000e+03 
95.629   5.98000000e+03 
95.593   6.16600000e+03 
95.557   5.93900000e+03 
95.521   5.77700000e+03 
95.485   5.57900000e+03 
95.449   5.32500000e+03 
95.413   5.23200000e+03 
95.377   4.98700000e+03 
95.341   4.74500000e+03 
95.305   4.48800000e+03 
95.270   4.26300000e+03 
95.234   4.05700000e+03 
95.198   3.65200000e+03 
95.162   3.34500000e+03 
95.126   3.23200000e+03 
95.090   3.21900000e+03 
95.054   2.84000000e+03 
95.018   2.60300000e+03 
94.982   2.43100000e+03 
94.946   2.31200000e+03 
94.910   2.18000000e+03 
94.874   2.07100000e+03 
94.838   1.92400000e+03 
94.802   1.86500000e+03 
94.766   1.75900000e+03 
94.730   1.56800000e+03 
94.695   1.52300000e+03 
94.659   1.51200000e+03 
94.623   1.44500000e+03 
94.587   1.37500000e+03 
94.551   1.36000000e+03 
94.515   1.28900000e+03 
94.479   1.23000000e+03 
94.443   1.26700000e+03 
94.407   1.25300000e+03 
94.371   1.19100000e+03 
94.335   1.13300000e+03 
94.299   1.17400000e+03 
94.263   1.12700000e+03 
94.227   1.10400000e+03 
94.191   1.16800000e+03 
94.155   1.12200000e+03 
94.120   1.08300000e+03 
94.084   1.16900000e+03 
94.048   1.09900000e+03 
94.012   1.14000000e+03 
93.976   1.16000000e+03 
93.940   1.12100000e+03 
93.904   1.11600000e+03 
93.868   1.14500000e+03 
93.832   1.16600000e+03 
93.796   1.16300000e+03 
93.760   1.17900000e+03 
93.724   1.16400000e+03 
93.688   1.20500000e+03 
93.652   1.29300000e+03 
93.616   1.28200000e+03 
93.580   1.30000000e+03 
93.545   1.32100000e+03 
93.509   1.39100000e+03 
93.473   1.39100000e+03 
93.437   1.53600000e+03 
93.401   1.45900000e+03 
93.365   1.58300000e+03 
93.329   1.70000000e+03 
93.293   1.75600000e+03 
93.257   1.80900000e+03 
93.221   1.79800000e+03 
93.185   1.96800000e+03 
93.149   2.09600000e+03 
93.113   2.13700000e+03 
93.077   2.29100000e+03 
93.041   2.39900000e+03 
93.005   2.54600000e+03 
92.970   2.65200000e+03 
92.934   2.82500000e+03 
92.898   2.93400000e+03 
92.862   3.11900000e+03 
92.826   3.30000000e+03 
92.790   3.36900000e+03 
92.754   3.70500000e+03 
92.718   3.83300000e+03 
92.682   4.23200000e+03 
92.646   4.24000000e+03 
92.610   4.49000000e+03 
92.574   4.76900000e+03 
92.538   4.97200000e+03 
92.502   5.21200000e+03 
92.466   5.45500000e+03 
92.430   5.86800000e+03 
92.395   5.91500000e+03 
92.359   6.25600000e+03 
92.323   6.52700000e+03 
92.287   6.59700000e+03 
92.251   6.80300000e+03 
92.215   7.00400000e+03 
92.179   7.05000000e+03 
92.143   7.32100000e+03 
92.107   7.28400000e+03 
92.071   7.33400000e+03 
92.035   7.57300000e+03 
91.999   7.48400000e+03 
91.963   7.42200000e+03 
91.927   7.11200000e+03 
91.891   7.25100000e+03 
91.855   7.09900000e+03 
91.820   6.94300000e+03 
91.784   6.78400000e+03 
91.748   6.51000000e+03 
91.712   6.11900000e+03 
91.676   5.81800000e+03 
91.640   5.48200000e+03 
91.604   5.10400000e+03 
91.568   4.77900000e+03 
91.532   4.53100000e+03 
91.496   4.14600000e+03 
91.460   3.81900000e+03 
91.424   3.55600000e+03 
91.388   3.17700000e+03 
91.352   2.98600000e+03 
91.316   2.76800000e+03 
91.280   2.42200000e+03 
91.245   2.14300000e+03 
91.209   2.08100000e+03 
91.173   1.87800000e+03 
91.137   1.79900000e+03 
91.101   1.62800000e+03 
91.065   1.51800000e+03 
91.029   1.41000000e+03 
90.993   1.37500000e+03 
90.957   1.21400000e+03 
90.921   1.14300000e+03 
90.885   1.07400000e+03 
90.849   1.01400000e+03 
90.813   9.49000000e+02 
90.777   9.47000000e+02 
90.741   8.71000000e+02 
90.705   8.18000000e+02 
90.670   8.52000000e+02 
90.634   8.01000000e+02 
90.598   7.36000000e+02 
90.562   7.03000000e+02 
90.526   7.03000000e+02 
90.490   6.45000000e+02 
90.454   6.65000000e+02 
90.418   6.32000000e+02 

