EXPERIMENT FILE
Version = 2

[ Experiment Parameters ]
Experiment Description= <none> 
Number_of_Regions_in_Experiment= 1 

Original_File_name= C:\alexesca\data\0123Theta30.xps 
Instrument= HP ESCA West
Date= 01-23-2013
Time=  10:39:16

[ Layer Parameters ]
Layer_Type= XPS

[ Region 1 Parameters ]
Region_Description = Au 4f Dithered 95eV Center 9.2eV Width
BEcenter(eV) = 95.000000
BEwidth(eV) = 9.200000
BEstep(eV) = 0.035938
Dwell_Time(sec) = 1.000000
N_o_scans = 1  
N_o_Channels = 256  
Scan_mode = 0  (DITHERED)

[ L= 1 R= 1 ]
BEcenter= 95.000  
BEwidth= -9.164  
Excitation= 1486.600
Time_p_channel= 256.000 
Size= 256
99.582   2.49000000e+02 
99.546   2.92000000e+02 
99.510   2.45000000e+02 
99.474   2.69000000e+02 
99.438   2.40000000e+02 
99.402   2.64000000e+02 
99.366   2.71000000e+02 
99.330   2.82000000e+02 
99.295   2.29000000e+02 
99.259   2.45000000e+02 
99.223   2.47000000e+02 
99.187   2.64000000e+02 
99.151   2.81000000e+02 
99.115   2.79000000e+02 
99.079   2.90000000e+02 
99.043   2.68000000e+02 
99.007   2.72000000e+02 
98.971   2.78000000e+02 
98.935   2.76000000e+02 
98.899   2.68000000e+02 
98.863   2.70000000e+02 
98.827   2.46000000e+02 
98.791   2.80000000e+02 
98.755   2.70000000e+02 
98.720   2.77000000e+02 
98.684   2.83000000e+02 
98.648   2.40000000e+02 
98.612   2.63000000e+02 
98.576   2.45000000e+02 
98.540   3.01000000e+02 
98.504   2.84000000e+02 
98.468   2.72000000e+02 
98.432   2.50000000e+02 
98.396   2.55000000e+02 
98.360   2.68000000e+02 
98.324   2.89000000e+02 
98.288   2.67000000e+02 
98.252   2.84000000e+02 
98.216   2.76000000e+02 
98.180   2.86000000e+02 
98.145   3.24000000e+02 
98.109   2.95000000e+02 
98.073   3.28000000e+02 
98.037   2.98000000e+02 
98.001   3.24000000e+02 
97.965   3.10000000e+02 
97.929   3.52000000e+02 
97.893   3.22000000e+02 
97.857   3.49000000e+02 
97.821   3.29000000e+02 
97.785   3.72000000e+02 
97.749   3.50000000e+02 
97.713   3.86000000e+02 
97.677   4.01000000e+02 
97.641   4.27000000e+02 
97.605   4.26000000e+02 
97.570   4.18000000e+02 
97.534   4.32000000e+02 
97.498   4.40000000e+02 
97.462   4.89000000e+02 
97.426   4.82000000e+02 
97.390   4.94000000e+02 
97.354   5.30000000e+02 
97.318   5.95000000e+02 
97.282   6.21000000e+02 
97.246   6.32000000e+02 
97.210   7.14000000e+02 
97.174   6.97000000e+02 
97.138   7.65000000e+02 
97.102   7.44000000e+02 
97.066   8.38000000e+02 
97.030   8.28000000e+02 
96.995   9.08000000e+02 
96.959   9.51000000e+02 
96.923   1.00800000e+03 
96.887   1.03800000e+03 
96.851   1.11600000e+03 
96.815   1.12400000e+03 
96.779   1.24400000e+03 
96.743   1.28600000e+03 
96.707   1.31100000e+03 
96.671   1.40800000e+03 
96.635   1.36600000e+03 
96.599   1.35300000e+03 
96.563   1.48200000e+03 
96.527   1.45200000e+03 
96.491   1.39500000e+03 
96.455   1.48000000e+03 
96.420   1.49800000e+03 
96.384   1.40700000e+03 
96.348   1.32700000e+03 
96.312   1.34100000e+03 
96.276   1.34500000e+03 
96.240   1.29600000e+03 
96.204   1.16700000e+03 
96.168   1.08600000e+03 
96.132   1.01500000e+03 
96.096   9.49000000e+02 
96.060   8.80000000e+02 
96.024   8.59000000e+02 
95.988   7.71000000e+02 
95.952   7.50000000e+02 
95.916   6.94000000e+02 
95.880   5.68000000e+02 
95.845   6.13000000e+02 
95.809   5.82000000e+02 
95.773   5.10000000e+02 
95.737   5.04000000e+02 
95.701   4.30000000e+02 
95.665   4.32000000e+02 
95.629   4.10000000e+02 
95.593   4.01000000e+02 
95.557   4.22000000e+02 
95.521   4.15000000e+02 
95.485   3.34000000e+02 
95.449   3.22000000e+02 
95.413   3.15000000e+02 
95.377   3.35000000e+02 
95.341   3.52000000e+02 
95.305   2.98000000e+02 
95.270   2.96000000e+02 
95.234   3.02000000e+02 
95.198   2.97000000e+02 
95.162   3.03000000e+02 
95.126   2.72000000e+02 
95.090   3.03000000e+02 
95.054   2.92000000e+02 
95.018   2.48000000e+02 
94.982   2.77000000e+02 
94.946   2.67000000e+02 
94.910   2.63000000e+02 
94.874   2.79000000e+02 
94.838   3.08000000e+02 
94.802   2.82000000e+02 
94.766   2.66000000e+02 
94.730   2.55000000e+02 
94.695   2.62000000e+02 
94.659   2.38000000e+02 
94.623   2.91000000e+02 
94.587   2.60000000e+02 
94.551   2.62000000e+02 
94.515   3.05000000e+02 
94.479   3.04000000e+02 
94.443   3.42000000e+02 
94.407   3.15000000e+02 
94.371   3.02000000e+02 
94.335   2.92000000e+02 
94.299   2.97000000e+02 
94.263   2.92000000e+02 
94.227   3.04000000e+02 
94.191   3.30000000e+02 
94.155   3.40000000e+02 
94.120   3.52000000e+02 
94.084   3.31000000e+02 
94.048   3.63000000e+02 
94.012   3.90000000e+02 
93.976   4.06000000e+02 
93.940   3.83000000e+02 
93.904   4.03000000e+02 
93.868   4.87000000e+02 
93.832   4.63000000e+02 
93.796   5.16000000e+02 
93.760   5.06000000e+02 
93.724   5.25000000e+02 
93.688   5.62000000e+02 
93.652   6.16000000e+02 
93.616   6.48000000e+02 
93.580   6.88000000e+02 
93.545   7.22000000e+02 
93.509   7.46000000e+02 
93.473   8.60000000e+02 
93.437   9.21000000e+02 
93.401   9.46000000e+02 
93.365   9.41000000e+02 
93.329   1.08200000e+03 
93.293   1.12900000e+03 
93.257   1.17200000e+03 
93.221   1.28200000e+03 
93.185   1.34900000e+03 
93.149   1.44700000e+03 
93.113   1.45800000e+03 
93.077   1.56000000e+03 
93.041   1.58100000e+03 
93.005   1.64700000e+03 
92.970   1.75700000e+03 
92.934   1.71500000e+03 
92.898   1.76900000e+03 
92.862   1.78000000e+03 
92.826   1.82700000e+03 
92.790   1.84200000e+03 
92.754   1.80100000e+03 
92.718   1.80300000e+03 
92.682   1.78000000e+03 
92.646   1.72100000e+03 
92.610   1.71100000e+03 
92.574   1.57500000e+03 
92.538   1.52400000e+03 
92.502   1.42900000e+03 
92.466   1.29900000e+03 
92.430   1.18700000e+03 
92.395   1.12000000e+03 
92.359   1.05300000e+03 
92.323   9.47000000e+02 
92.287   8.17000000e+02 
92.251   7.58000000e+02 
92.215   7.33000000e+02 
92.179   6.68000000e+02 
92.143   6.18000000e+02 
92.107   5.54000000e+02 
92.071   4.53000000e+02 
92.035   4.47000000e+02 
91.999   4.62000000e+02 
91.963   4.21000000e+02 
91.927   3.70000000e+02 
91.891   3.39000000e+02 
91.855   3.24000000e+02 
91.820   2.99000000e+02 
91.784   2.95000000e+02 
91.748   2.78000000e+02 
91.712   2.78000000e+02 
91.676   2.71000000e+02 
91.640   2.50000000e+02 
91.604   2.33000000e+02 
91.568   2.30000000e+02 
91.532   2.49000000e+02 
91.496   2.01000000e+02 
91.460   2.03000000e+02 
91.424   1.83000000e+02 
91.388   2.10000000e+02 
91.352   1.92000000e+02 
91.316   1.68000000e+02 
91.280   1.94000000e+02 
91.245   1.85000000e+02 
91.209   1.58000000e+02 
91.173   1.63000000e+02 
91.137   1.75000000e+02 
91.101   1.54000000e+02 
91.065   1.79000000e+02 
91.029   1.49000000e+02 
90.993   1.56000000e+02 
90.957   1.49000000e+02 
90.921   1.60000000e+02 
90.885   1.47000000e+02 
90.849   1.43000000e+02 
90.813   1.42000000e+02 
90.777   1.50000000e+02 
90.741   1.46000000e+02 
90.705   1.58000000e+02 
90.670   1.53000000e+02 
90.634   1.51000000e+02 
90.598   1.56000000e+02 
90.562   1.51000000e+02 
90.526   1.37000000e+02 
90.490   1.65000000e+02 
90.454   1.38000000e+02 
90.418   1.33000000e+02 

