EXPERIMENT FILE
Version = 2

[ Experiment Parameters ]
Experiment Description= <none> 
Number_of_Regions_in_Experiment= 1 

Original_File_name= C:\alexesca\data\0123Theta15.xps 
Instrument= HP ESCA West
Date= 01-23-2013
Time=  11:13:40

[ Layer Parameters ]
Layer_Type= XPS

[ Region 1 Parameters ]
Region_Description = Au 4f Dithered 95eV Center 9.2eV Width
BEcenter(eV) = 95.000000
BEwidth(eV) = 9.200000
BEstep(eV) = 0.035938
Dwell_Time(sec) = 1.000000
N_o_scans = 1  
N_o_Channels = 256  
Scan_mode = 0  (DITHERED)

[ L= 1 R= 1 ]
BEcenter= 95.000  
BEwidth= -9.164  
Excitation= 1486.600
Time_p_channel= 256.000 
Size= 256
99.582   6.54000000e+02 
99.546   6.77000000e+02 
99.510   6.80000000e+02 
99.474   6.88000000e+02 
99.438   6.83000000e+02 
99.402   6.74000000e+02 
99.366   6.99000000e+02 
99.330   6.85000000e+02 
99.295   7.16000000e+02 
99.259   6.38000000e+02 
99.223   6.39000000e+02 
99.187   6.62000000e+02 
99.151   6.81000000e+02 
99.115   6.80000000e+02 
99.079   6.60000000e+02 
99.043   6.91000000e+02 
99.007   6.96000000e+02 
98.971   6.83000000e+02 
98.935   7.27000000e+02 
98.899   7.00000000e+02 
98.863   6.96000000e+02 
98.827   7.06000000e+02 
98.791   6.64000000e+02 
98.755   7.11000000e+02 
98.720   7.26000000e+02 
98.684   7.19000000e+02 
98.648   6.73000000e+02 
98.612   6.88000000e+02 
98.576   7.60000000e+02 
98.540   7.57000000e+02 
98.504   7.61000000e+02 
98.468   7.48000000e+02 
98.432   6.96000000e+02 
98.396   7.18000000e+02 
98.360   7.43000000e+02 
98.324   7.11000000e+02 
98.288   7.06000000e+02 
98.252   7.16000000e+02 
98.216   7.35000000e+02 
98.180   7.06000000e+02 
98.145   6.99000000e+02 
98.109   6.94000000e+02 
98.073   7.09000000e+02 
98.037   7.79000000e+02 
98.001   7.66000000e+02 
97.965   7.67000000e+02 
97.929   7.74000000e+02 
97.893   8.26000000e+02 
97.857   7.77000000e+02 
97.821   8.18000000e+02 
97.785   8.00000000e+02 
97.749   7.90000000e+02 
97.713   8.74000000e+02 
97.677   7.69000000e+02 
97.641   8.51000000e+02 
97.605   8.61000000e+02 
97.570   8.83000000e+02 
97.534   8.63000000e+02 
97.498   8.99000000e+02 
97.462   9.06000000e+02 
97.426   9.16000000e+02 
97.390   9.96000000e+02 
97.354   1.02600000e+03 
97.318   1.04700000e+03 
97.282   1.16000000e+03 
97.246   1.13700000e+03 
97.210   1.21900000e+03 
97.174   1.21400000e+03 
97.138   1.27000000e+03 
97.102   1.26700000e+03 
97.066   1.34500000e+03 
97.030   1.44900000e+03 
96.995   1.51700000e+03 
96.959   1.55000000e+03 
96.923   1.61800000e+03 
96.887   1.72300000e+03 
96.851   1.83400000e+03 
96.815   1.92000000e+03 
96.779   2.04100000e+03 
96.743   2.16900000e+03 
96.707   2.25200000e+03 
96.671   2.36700000e+03 
96.635   2.51400000e+03 
96.599   2.66400000e+03 
96.563   2.82000000e+03 
96.527   2.91300000e+03 
96.491   2.97300000e+03 
96.455   3.19500000e+03 
96.420   3.44600000e+03 
96.384   3.46600000e+03 
96.348   3.61700000e+03 
96.312   3.88700000e+03 
96.276   3.90000000e+03 
96.240   3.88400000e+03 
96.204   4.13200000e+03 
96.168   4.21300000e+03 
96.132   4.19800000e+03 
96.096   4.32100000e+03 
96.060   4.10500000e+03 
96.024   4.22500000e+03 
95.988   4.20200000e+03 
95.952   4.13600000e+03 
95.916   3.99500000e+03 
95.880   3.92300000e+03 
95.845   3.70300000e+03 
95.809   3.50500000e+03 
95.773   3.46500000e+03 
95.737   3.16600000e+03 
95.701   3.13100000e+03 
95.665   2.79700000e+03 
95.629   2.67200000e+03 
95.593   2.40300000e+03 
95.557   2.27600000e+03 
95.521   2.16700000e+03 
95.485   1.90800000e+03 
95.449   1.81700000e+03 
95.413   1.70300000e+03 
95.377   1.54400000e+03 
95.341   1.46000000e+03 
95.305   1.38800000e+03 
95.270   1.37000000e+03 
95.234   1.24800000e+03 
95.198   1.18000000e+03 
95.162   1.11900000e+03 
95.126   1.02400000e+03 
95.090   1.05400000e+03 
95.054   1.01400000e+03 
95.018   9.31000000e+02 
94.982   9.41000000e+02 
94.946   8.89000000e+02 
94.910   8.56000000e+02 
94.874   8.67000000e+02 
94.838   8.36000000e+02 
94.802   7.76000000e+02 
94.766   7.97000000e+02 
94.730   7.54000000e+02 
94.695   7.43000000e+02 
94.659   8.20000000e+02 
94.623   8.12000000e+02 
94.587   7.71000000e+02 
94.551   7.68000000e+02 
94.515   7.69000000e+02 
94.479   7.84000000e+02 
94.443   7.59000000e+02 
94.407   7.63000000e+02 
94.371   7.02000000e+02 
94.335   7.55000000e+02 
94.299   7.13000000e+02 
94.263   7.49000000e+02 
94.227   7.70000000e+02 
94.191   7.42000000e+02 
94.155   7.73000000e+02 
94.120   7.49000000e+02 
94.084   7.72000000e+02 
94.048   8.17000000e+02 
94.012   8.31000000e+02 
93.976   8.29000000e+02 
93.940   8.24000000e+02 
93.904   8.79000000e+02 
93.868   8.51000000e+02 
93.832   8.46000000e+02 
93.796   9.38000000e+02 
93.760   9.16000000e+02 
93.724   9.50000000e+02 
93.688   1.02100000e+03 
93.652   9.99000000e+02 
93.616   1.05900000e+03 
93.580   1.09100000e+03 
93.545   1.18900000e+03 
93.509   1.16300000e+03 
93.473   1.26000000e+03 
93.437   1.37000000e+03 
93.401   1.36500000e+03 
93.365   1.46100000e+03 
93.329   1.63400000e+03 
93.293   1.66000000e+03 
93.257   1.76900000e+03 
93.221   1.93400000e+03 
93.185   2.01100000e+03 
93.149   2.00700000e+03 
93.113   2.14800000e+03 
93.077   2.37300000e+03 
93.041   2.57100000e+03 
93.005   2.78800000e+03 
92.970   2.80900000e+03 
92.934   3.03300000e+03 
92.898   3.20700000e+03 
92.862   3.31900000e+03 
92.826   3.66000000e+03 
92.790   3.74100000e+03 
92.754   3.97200000e+03 
92.718   4.08500000e+03 
92.682   4.29900000e+03 
92.646   4.45100000e+03 
92.610   4.59000000e+03 
92.574   4.78500000e+03 
92.538   4.89700000e+03 
92.502   5.01800000e+03 
92.466   5.13900000e+03 
92.430   5.12800000e+03 
92.395   5.30400000e+03 
92.359   5.14400000e+03 
92.323   5.21800000e+03 
92.287   5.10500000e+03 
92.251   5.02200000e+03 
92.215   4.84900000e+03 
92.179   4.70500000e+03 
92.143   4.43200000e+03 
92.107   4.31100000e+03 
92.071   3.97400000e+03 
92.035   3.72300000e+03 
91.999   3.52900000e+03 
91.963   3.23500000e+03 
91.927   2.93600000e+03 
91.891   2.69500000e+03 
91.855   2.45300000e+03 
91.820   2.22800000e+03 
91.784   2.09500000e+03 
91.748   1.84700000e+03 
91.712   1.70400000e+03 
91.676   1.63700000e+03 
91.640   1.40300000e+03 
91.604   1.25900000e+03 
91.568   1.20300000e+03 
91.532   1.14600000e+03 
91.496   9.88000000e+02 
91.460   9.58000000e+02 
91.424   8.79000000e+02 
91.388   8.21000000e+02 
91.352   7.84000000e+02 
91.316   7.29000000e+02 
91.280   7.07000000e+02 
91.245   6.96000000e+02 
91.209   6.21000000e+02 
91.173   6.13000000e+02 
91.137   5.92000000e+02 
91.101   5.50000000e+02 
91.065   5.54000000e+02 
91.029   5.16000000e+02 
90.993   4.83000000e+02 
90.957   4.77000000e+02 
90.921   5.11000000e+02 
90.885   4.60000000e+02 
90.849   4.35000000e+02 
90.813   4.49000000e+02 
90.777   4.09000000e+02 
90.741   3.81000000e+02 
90.705   4.49000000e+02 
90.670   4.27000000e+02 
90.634   3.67000000e+02 
90.598   3.85000000e+02 
90.562   4.16000000e+02 
90.526   3.93000000e+02 
90.490   3.66000000e+02 
90.454   3.78000000e+02 
90.418   3.66000000e+02 

