EXPERIMENT FILE
Version = 2

[ Experiment Parameters ]
Experiment Description= <none> 
Number_of_Regions_in_Experiment= 1 

Original_File_name= C:\alexesca\data\0123Theta25.xps 
Instrument= HP ESCA West
Date= 01-23-2013
Time=  10:49:38

[ Layer Parameters ]
Layer_Type= XPS

[ Region 1 Parameters ]
Region_Description = Au 4f Dithered 95eV Center 9.2eV Width
BEcenter(eV) = 95.000000
BEwidth(eV) = 9.200000
BEstep(eV) = 0.035938
Dwell_Time(sec) = 1.000000
N_o_scans = 1  
N_o_Channels = 256  
Scan_mode = 0  (DITHERED)

[ L= 1 R= 1 ]
BEcenter= 95.000  
BEwidth= -9.164  
Excitation= 1486.600
Time_p_channel= 256.000 
Size= 256
99.582   3.78000000e+02 
99.546   3.94000000e+02 
99.510   3.84000000e+02 
99.474   4.13000000e+02 
99.438   4.01000000e+02 
99.402   3.99000000e+02 
99.366   3.74000000e+02 
99.330   3.74000000e+02 
99.295   4.06000000e+02 
99.259   3.75000000e+02 
99.223   4.09000000e+02 
99.187   4.35000000e+02 
99.151   4.17000000e+02 
99.115   3.62000000e+02 
99.079   3.79000000e+02 
99.043   3.87000000e+02 
99.007   3.70000000e+02 
98.971   4.16000000e+02 
98.935   4.13000000e+02 
98.899   3.91000000e+02 
98.863   4.46000000e+02 
98.827   4.25000000e+02 
98.791   4.31000000e+02 
98.755   3.97000000e+02 
98.720   4.39000000e+02 
98.684   4.14000000e+02 
98.648   4.06000000e+02 
98.612   4.27000000e+02 
98.576   4.46000000e+02 
98.540   4.63000000e+02 
98.504   4.18000000e+02 
98.468   4.21000000e+02 
98.432   4.20000000e+02 
98.396   3.60000000e+02 
98.360   4.47000000e+02 
98.324   4.27000000e+02 
98.288   4.03000000e+02 
98.252   4.31000000e+02 
98.216   4.46000000e+02 
98.180   4.45000000e+02 
98.145   4.34000000e+02 
98.109   4.38000000e+02 
98.073   4.46000000e+02 
98.037   4.66000000e+02 
98.001   4.35000000e+02 
97.965   4.87000000e+02 
97.929   4.58000000e+02 
97.893   4.62000000e+02 
97.857   4.32000000e+02 
97.821   4.74000000e+02 
97.785   4.98000000e+02 
97.749   5.25000000e+02 
97.713   5.55000000e+02 
97.677   5.34000000e+02 
97.641   5.22000000e+02 
97.605   5.51000000e+02 
97.570   6.03000000e+02 
97.534   6.00000000e+02 
97.498   6.42000000e+02 
97.462   6.62000000e+02 
97.426   7.02000000e+02 
97.390   6.76000000e+02 
97.354   7.11000000e+02 
97.318   7.78000000e+02 
97.282   7.81000000e+02 
97.246   8.38000000e+02 
97.210   8.58000000e+02 
97.174   9.62000000e+02 
97.138   9.26000000e+02 
97.102   1.07800000e+03 
97.066   1.03700000e+03 
97.030   1.11700000e+03 
96.995   1.23400000e+03 
96.959   1.25800000e+03 
96.923   1.32000000e+03 
96.887   1.45600000e+03 
96.851   1.48400000e+03 
96.815   1.66800000e+03 
96.779   1.71200000e+03 
96.743   1.73300000e+03 
96.707   1.91000000e+03 
96.671   1.88100000e+03 
96.635   1.98200000e+03 
96.599   2.07500000e+03 
96.563   2.19700000e+03 
96.527   2.20300000e+03 
96.491   2.24000000e+03 
96.455   2.27700000e+03 
96.420   2.36800000e+03 
96.384   2.35000000e+03 
96.348   2.42400000e+03 
96.312   2.25900000e+03 
96.276   2.37700000e+03 
96.240   2.25300000e+03 
96.204   2.15600000e+03 
96.168   2.07800000e+03 
96.132   1.98400000e+03 
96.096   1.90500000e+03 
96.060   1.80000000e+03 
96.024   1.69500000e+03 
95.988   1.62100000e+03 
95.952   1.53100000e+03 
95.916   1.38800000e+03 
95.880   1.22400000e+03 
95.845   1.18000000e+03 
95.809   1.20300000e+03 
95.773   1.01700000e+03 
95.737   9.54000000e+02 
95.701   9.03000000e+02 
95.665   7.97000000e+02 
95.629   8.09000000e+02 
95.593   7.55000000e+02 
95.557   7.52000000e+02 
95.521   6.77000000e+02 
95.485   6.01000000e+02 
95.449   5.76000000e+02 
95.413   5.85000000e+02 
95.377   5.98000000e+02 
95.341   5.89000000e+02 
95.305   5.49000000e+02 
95.270   5.07000000e+02 
95.234   4.97000000e+02 
95.198   4.56000000e+02 
95.162   4.45000000e+02 
95.126   4.65000000e+02 
95.090   4.27000000e+02 
95.054   4.51000000e+02 
95.018   4.29000000e+02 
94.982   4.09000000e+02 
94.946   4.38000000e+02 
94.910   4.21000000e+02 
94.874   4.22000000e+02 
94.838   4.33000000e+02 
94.802   4.25000000e+02 
94.766   3.93000000e+02 
94.730   4.17000000e+02 
94.695   4.29000000e+02 
94.659   3.78000000e+02 
94.623   3.72000000e+02 
94.587   4.20000000e+02 
94.551   4.02000000e+02 
94.515   4.24000000e+02 
94.479   4.07000000e+02 
94.443   4.17000000e+02 
94.407   4.09000000e+02 
94.371   4.24000000e+02 
94.335   4.39000000e+02 
94.299   3.97000000e+02 
94.263   4.20000000e+02 
94.227   4.35000000e+02 
94.191   4.58000000e+02 
94.155   4.95000000e+02 
94.120   4.95000000e+02 
94.084   4.80000000e+02 
94.048   5.27000000e+02 
94.012   5.13000000e+02 
93.976   5.47000000e+02 
93.940   5.51000000e+02 
93.904   5.78000000e+02 
93.868   5.96000000e+02 
93.832   6.30000000e+02 
93.796   6.14000000e+02 
93.760   6.74000000e+02 
93.724   6.92000000e+02 
93.688   7.59000000e+02 
93.652   7.67000000e+02 
93.616   7.79000000e+02 
93.580   8.40000000e+02 
93.545   9.11000000e+02 
93.509   9.97000000e+02 
93.473   1.08000000e+03 
93.437   1.04900000e+03 
93.401   1.21200000e+03 
93.365   1.24300000e+03 
93.329   1.32100000e+03 
93.293   1.40600000e+03 
93.257   1.49200000e+03 
93.221   1.63800000e+03 
93.185   1.70400000e+03 
93.149   1.71900000e+03 
93.113   1.96400000e+03 
93.077   2.04900000e+03 
93.041   2.15300000e+03 
93.005   2.14100000e+03 
92.970   2.40000000e+03 
92.934   2.50500000e+03 
92.898   2.60500000e+03 
92.862   2.67300000e+03 
92.826   2.75200000e+03 
92.790   2.82500000e+03 
92.754   2.84300000e+03 
92.718   2.83000000e+03 
92.682   2.87400000e+03 
92.646   2.97500000e+03 
92.610   2.85400000e+03 
92.574   2.93100000e+03 
92.538   2.65100000e+03 
92.502   2.66300000e+03 
92.466   2.55300000e+03 
92.430   2.43000000e+03 
92.395   2.30700000e+03 
92.359   2.15200000e+03 
92.323   2.02700000e+03 
92.287   1.85300000e+03 
92.251   1.73300000e+03 
92.215   1.59700000e+03 
92.179   1.43100000e+03 
92.143   1.32500000e+03 
92.107   1.16800000e+03 
92.071   1.09400000e+03 
92.035   9.83000000e+02 
91.999   8.99000000e+02 
91.963   8.06000000e+02 
91.927   7.71000000e+02 
91.891   7.20000000e+02 
91.855   6.37000000e+02 
91.820   6.24000000e+02 
91.784   5.34000000e+02 
91.748   5.58000000e+02 
91.712   4.91000000e+02 
91.676   4.45000000e+02 
91.640   4.04000000e+02 
91.604   4.25000000e+02 
91.568   4.04000000e+02 
91.532   3.48000000e+02 
91.496   3.68000000e+02 
91.460   3.10000000e+02 
91.424   3.32000000e+02 
91.388   3.21000000e+02 
91.352   3.05000000e+02 
91.316   3.18000000e+02 
91.280   2.83000000e+02 
91.245   2.74000000e+02 
91.209   2.75000000e+02 
91.173   2.86000000e+02 
91.137   2.99000000e+02 
91.101   2.91000000e+02 
91.065   2.48000000e+02 
91.029   2.59000000e+02 
90.993   2.74000000e+02 
90.957   2.46000000e+02 
90.921   2.40000000e+02 
90.885   2.51000000e+02 
90.849   2.18000000e+02 
90.813   2.21000000e+02 
90.777   2.37000000e+02 
90.741   2.14000000e+02 
90.705   2.42000000e+02 
90.670   2.07000000e+02 
90.634   2.18000000e+02 
90.598   2.28000000e+02 
90.562   2.21000000e+02 
90.526   2.05000000e+02 
90.490   1.98000000e+02 
90.454   1.97000000e+02 
90.418   1.85000000e+02 

