EXPERIMENT FILE
Version = 2

[ Experiment Parameters ]
Experiment Description= <none> 
Number_of_Regions_in_Experiment= 1 

Original_File_name= C:\alexesca\data\0123Theta10.xps 
Instrument= HP ESCA West
Date= 01-23-2013
Time=  11:35:56

[ Layer Parameters ]
Layer_Type= XPS

[ Region 1 Parameters ]
Region_Description = Au 4f Dithered 95eV Center 9.2eV Width
BEcenter(eV) = 95.000000
BEwidth(eV) = 9.200000
BEstep(eV) = 0.035938
Dwell_Time(sec) = 1.000000
N_o_scans = 1  
N_o_Channels = 256  
Scan_mode = 0  (DITHERED)

[ L= 1 R= 1 ]
BEcenter= 95.000  
BEwidth= -9.164  
Excitation= 1486.600
Time_p_channel= 256.000 
Size= 256
99.582   8.39000000e+02 
99.546   7.62000000e+02 
99.510   8.24000000e+02 
99.474   8.02000000e+02 
99.438   7.97000000e+02 
99.402   7.24000000e+02 
99.366   7.55000000e+02 
99.330   7.66000000e+02 
99.295   8.09000000e+02 
99.259   8.53000000e+02 
99.223   7.71000000e+02 
99.187   7.77000000e+02 
99.151   8.21000000e+02 
99.115   8.62000000e+02 
99.079   7.99000000e+02 
99.043   7.85000000e+02 
99.007   8.51000000e+02 
98.971   8.12000000e+02 
98.935   8.51000000e+02 
98.899   8.85000000e+02 
98.863   8.37000000e+02 
98.827   8.18000000e+02 
98.791   8.52000000e+02 
98.755   7.97000000e+02 
98.720   8.14000000e+02 
98.684   8.68000000e+02 
98.648   8.97000000e+02 
98.612   8.40000000e+02 
98.576   8.43000000e+02 
98.540   8.07000000e+02 
98.504   8.83000000e+02 
98.468   8.97000000e+02 
98.432   8.67000000e+02 
98.396   8.56000000e+02 
98.360   9.02000000e+02 
98.324   8.65000000e+02 
98.288   9.14000000e+02 
98.252   8.40000000e+02 
98.216   9.01000000e+02 
98.180   8.67000000e+02 
98.145   8.82000000e+02 
98.109   9.03000000e+02 
98.073   8.83000000e+02 
98.037   9.21000000e+02 
98.001   8.86000000e+02 
97.965   8.54000000e+02 
97.929   9.22000000e+02 
97.893   9.73000000e+02 
97.857   9.29000000e+02 
97.821   9.36000000e+02 
97.785   9.47000000e+02 
97.749   9.72000000e+02 
97.713   9.56000000e+02 
97.677   9.95000000e+02 
97.641   9.96000000e+02 
97.605   9.78000000e+02 
97.570   1.01500000e+03 
97.534   1.03100000e+03 
97.498   1.07200000e+03 
97.462   1.08900000e+03 
97.426   1.07200000e+03 
97.390   1.11900000e+03 
97.354   1.18900000e+03 
97.318   1.19500000e+03 
97.282   1.24000000e+03 
97.246   1.25700000e+03 
97.210   1.29100000e+03 
97.174   1.32900000e+03 
97.138   1.38700000e+03 
97.102   1.42000000e+03 
97.066   1.47800000e+03 
97.030   1.50000000e+03 
96.995   1.61300000e+03 
96.959   1.64600000e+03 
96.923   1.70300000e+03 
96.887   1.75000000e+03 
96.851   2.00300000e+03 
96.815   1.96000000e+03 
96.779   2.19500000e+03 
96.743   2.26400000e+03 
96.707   2.33600000e+03 
96.671   2.41900000e+03 
96.635   2.55100000e+03 
96.599   2.69800000e+03 
96.563   2.97100000e+03 
96.527   3.03300000e+03 
96.491   3.27800000e+03 
96.455   3.45300000e+03 
96.420   3.53500000e+03 
96.384   3.74100000e+03 
96.348   3.81000000e+03 
96.312   3.86800000e+03 
96.276   4.08200000e+03 
96.240   4.32600000e+03 
96.204   4.32000000e+03 
96.168   4.50900000e+03 
96.132   4.64400000e+03 
96.096   4.84300000e+03 
96.060   4.97800000e+03 
96.024   5.02200000e+03 
95.988   5.14300000e+03 
95.952   5.10300000e+03 
95.916   5.09400000e+03 
95.880   5.21200000e+03 
95.845   5.05100000e+03 
95.809   5.00400000e+03 
95.773   4.89500000e+03 
95.737   4.71200000e+03 
95.701   4.62200000e+03 
95.665   4.40800000e+03 
95.629   4.26900000e+03 
95.593   4.19600000e+03 
95.557   3.73700000e+03 
95.521   3.52600000e+03 
95.485   3.34600000e+03 
95.449   3.13600000e+03 
95.413   3.04300000e+03 
95.377   2.79200000e+03 
95.341   2.60000000e+03 
95.305   2.31300000e+03 
95.270   2.22200000e+03 
95.234   2.05000000e+03 
95.198   1.95900000e+03 
95.162   1.87700000e+03 
95.126   1.73400000e+03 
95.090   1.63500000e+03 
95.054   1.49200000e+03 
95.018   1.41400000e+03 
94.982   1.38100000e+03 
94.946   1.28800000e+03 
94.910   1.24700000e+03 
94.874   1.22100000e+03 
94.838   1.17700000e+03 
94.802   1.09500000e+03 
94.766   1.07700000e+03 
94.730   1.05100000e+03 
94.695   1.04300000e+03 
94.659   1.01500000e+03 
94.623   9.38000000e+02 
94.587   9.97000000e+02 
94.551   9.31000000e+02 
94.515   9.55000000e+02 
94.479   9.02000000e+02 
94.443   9.38000000e+02 
94.407   9.08000000e+02 
94.371   9.62000000e+02 
94.335   9.26000000e+02 
94.299   8.72000000e+02 
94.263   8.92000000e+02 
94.227   9.61000000e+02 
94.191   8.73000000e+02 
94.155   8.88000000e+02 
94.120   9.28000000e+02 
94.084   8.54000000e+02 
94.048   9.00000000e+02 
94.012   9.18000000e+02 
93.976   9.48000000e+02 
93.940   1.00100000e+03 
93.904   9.20000000e+02 
93.868   1.01200000e+03 
93.832   1.03700000e+03 
93.796   1.03500000e+03 
93.760   1.03300000e+03 
93.724   1.10800000e+03 
93.688   1.10200000e+03 
93.652   1.11200000e+03 
93.616   1.22000000e+03 
93.580   1.19900000e+03 
93.545   1.33100000e+03 
93.509   1.33200000e+03 
93.473   1.26500000e+03 
93.437   1.47200000e+03 
93.401   1.48000000e+03 
93.365   1.46900000e+03 
93.329   1.60900000e+03 
93.293   1.72400000e+03 
93.257   1.79100000e+03 
93.221   1.93300000e+03 
93.185   1.98700000e+03 
93.149   2.13400000e+03 
93.113   2.23300000e+03 
93.077   2.32900000e+03 
93.041   2.53900000e+03 
93.005   2.69400000e+03 
92.970   2.77900000e+03 
92.934   3.00000000e+03 
92.898   3.19400000e+03 
92.862   3.41500000e+03 
92.826   3.45700000e+03 
92.790   3.72100000e+03 
92.754   3.99000000e+03 
92.718   4.16100000e+03 
92.682   4.33800000e+03 
92.646   4.67400000e+03 
92.610   4.84800000e+03 
92.574   5.12900000e+03 
92.538   5.20100000e+03 
92.502   5.42100000e+03 
92.466   5.73300000e+03 
92.430   5.71700000e+03 
92.395   6.00000000e+03 
92.359   6.11300000e+03 
92.323   6.24900000e+03 
92.287   6.32900000e+03 
92.251   6.37400000e+03 
92.215   6.29800000e+03 
92.179   6.29700000e+03 
92.143   6.25200000e+03 
92.107   6.13700000e+03 
92.071   5.98200000e+03 
92.035   5.69900000e+03 
91.999   5.48300000e+03 
91.963   5.31100000e+03 
91.927   4.95500000e+03 
91.891   4.73200000e+03 
91.855   4.41100000e+03 
91.820   4.12600000e+03 
91.784   3.87100000e+03 
91.748   3.56100000e+03 
91.712   3.23600000e+03 
91.676   3.03000000e+03 
91.640   2.73000000e+03 
91.604   2.48800000e+03 
91.568   2.22000000e+03 
91.532   2.02500000e+03 
91.496   1.94600000e+03 
91.460   1.73100000e+03 
91.424   1.58600000e+03 
91.388   1.51200000e+03 
91.352   1.33900000e+03 
91.316   1.21200000e+03 
91.280   1.18800000e+03 
91.245   1.10300000e+03 
91.209   1.03300000e+03 
91.173   9.30000000e+02 
91.137   9.44000000e+02 
91.101   8.23000000e+02 
91.065   7.84000000e+02 
91.029   7.40000000e+02 
90.993   7.26000000e+02 
90.957   6.43000000e+02 
90.921   6.79000000e+02 
90.885   6.05000000e+02 
90.849   6.58000000e+02 
90.813   6.14000000e+02 
90.777   5.93000000e+02 
90.741   5.60000000e+02 
90.705   5.55000000e+02 
90.670   5.74000000e+02 
90.634   5.55000000e+02 
90.598   5.21000000e+02 
90.562   4.91000000e+02 
90.526   5.24000000e+02 
90.490   4.71000000e+02 
90.454   4.64000000e+02 
90.418   4.63000000e+02 

