EXPERIMENT FILE
Version = 2

[ Experiment Parameters ]
Experiment Description= <none> 
Number_of_Regions_in_Experiment= 1 

Original_File_name= C:\alexesca\data\0124Theta20.xps 
Instrument= HP ESCA West
Date= 01-24-2013
Time=  10:49:09

[ Layer Parameters ]
Layer_Type= XPS

[ Region 1 Parameters ]
Region_Description = Au 4f Dithered 94eV Center 9.2eV Width
BEcenter(eV) = 94.000000
BEwidth(eV) = 9.200000
BEstep(eV) = 0.035938
Dwell_Time(sec) = 1.000000
N_o_scans = 1  
N_o_Channels = 256  
Scan_mode = 0  (DITHERED)

[ L= 1 R= 1 ]
BEcenter= 94.000  
BEwidth= -9.164  
Excitation= 1486.600
Time_p_channel= 256.000 
Size= 256
98.582   1.03200000e+03 
98.546   1.11000000e+03 
98.510   1.07900000e+03 
98.474   1.07400000e+03 
98.438   1.07100000e+03 
98.402   1.04100000e+03 
98.366   1.07600000e+03 
98.330   1.06800000e+03 
98.295   1.02700000e+03 
98.259   1.12700000e+03 
98.223   1.14100000e+03 
98.187   1.02600000e+03 
98.151   1.06800000e+03 
98.115   1.11200000e+03 
98.079   1.11000000e+03 
98.043   1.15400000e+03 
98.007   1.12400000e+03 
97.971   1.11100000e+03 
97.935   1.11300000e+03 
97.899   1.10900000e+03 
97.863   1.10600000e+03 
97.827   1.08600000e+03 
97.791   1.12100000e+03 
97.755   1.14700000e+03 
97.720   1.14900000e+03 
97.684   1.16100000e+03 
97.648   1.15000000e+03 
97.612   1.14600000e+03 
97.576   1.21800000e+03 
97.540   1.20100000e+03 
97.504   1.17600000e+03 
97.468   1.20900000e+03 
97.432   1.29400000e+03 
97.396   1.25000000e+03 
97.360   1.30400000e+03 
97.324   1.31000000e+03 
97.288   1.26900000e+03 
97.252   1.31400000e+03 
97.216   1.33100000e+03 
97.180   1.36900000e+03 
97.145   1.37400000e+03 
97.109   1.37800000e+03 
97.073   1.34400000e+03 
97.037   1.46900000e+03 
97.001   1.41300000e+03 
96.965   1.47100000e+03 
96.929   1.53500000e+03 
96.893   1.50000000e+03 
96.857   1.57900000e+03 
96.821   1.53400000e+03 
96.785   1.63400000e+03 
96.749   1.71500000e+03 
96.713   1.67200000e+03 
96.677   1.78600000e+03 
96.641   1.76600000e+03 
96.605   1.91400000e+03 
96.570   1.85900000e+03 
96.534   1.96500000e+03 
96.498   2.01900000e+03 
96.462   1.96300000e+03 
96.426   2.14500000e+03 
96.390   2.17500000e+03 
96.354   2.24600000e+03 
96.318   2.19100000e+03 
96.282   2.41200000e+03 
96.246   2.36700000e+03 
96.210   2.60700000e+03 
96.174   2.54700000e+03 
96.138   2.59400000e+03 
96.102   2.71800000e+03 
96.066   2.74200000e+03 
96.030   2.94500000e+03 
95.995   2.93200000e+03 
95.959   3.00200000e+03 
95.923   3.14900000e+03 
95.887   3.20200000e+03 
95.851   3.31100000e+03 
95.815   3.32200000e+03 
95.779   3.39400000e+03 
95.743   3.60700000e+03 
95.707   3.79200000e+03 
95.671   3.68700000e+03 
95.635   3.80600000e+03 
95.599   4.08100000e+03 
95.563   4.11400000e+03 
95.527   4.21800000e+03 
95.491   4.27500000e+03 
95.455   4.32000000e+03 
95.420   4.46400000e+03 
95.384   4.69500000e+03 
95.348   4.78600000e+03 
95.312   4.84800000e+03 
95.276   4.99700000e+03 
95.240   4.99000000e+03 
95.204   5.17000000e+03 
95.168   5.34800000e+03 
95.132   5.26300000e+03 
95.096   5.46200000e+03 
95.060   5.47800000e+03 
95.024   5.66600000e+03 
94.988   5.52100000e+03 
94.952   5.82000000e+03 
94.916   5.70800000e+03 
94.880   5.76900000e+03 
94.845   5.79200000e+03 
94.809   5.84600000e+03 
94.773   5.68700000e+03 
94.737   5.73700000e+03 
94.701   5.58900000e+03 
94.665   5.44000000e+03 
94.629   5.43700000e+03 
94.593   5.13200000e+03 
94.557   5.05800000e+03 
94.521   4.78000000e+03 
94.485   4.66700000e+03 
94.449   4.42200000e+03 
94.413   4.05800000e+03 
94.377   3.78300000e+03 
94.341   3.53900000e+03 
94.305   3.35200000e+03 
94.270   3.10600000e+03 
94.234   2.90500000e+03 
94.198   2.61100000e+03 
94.162   2.42000000e+03 
94.126   2.24100000e+03 
94.090   2.17100000e+03 
94.054   2.04300000e+03 
94.018   1.83400000e+03 
93.982   1.83400000e+03 
93.946   1.71800000e+03 
93.910   1.66000000e+03 
93.874   1.58000000e+03 
93.838   1.58300000e+03 
93.802   1.51500000e+03 
93.766   1.45200000e+03 
93.730   1.47800000e+03 
93.695   1.43800000e+03 
93.659   1.39900000e+03 
93.623   1.42900000e+03 
93.587   1.40800000e+03 
93.551   1.37600000e+03 
93.515   1.40100000e+03 
93.479   1.45500000e+03 
93.443   1.44600000e+03 
93.407   1.46200000e+03 
93.371   1.44900000e+03 
93.335   1.41300000e+03 
93.299   1.49500000e+03 
93.263   1.54300000e+03 
93.227   1.55900000e+03 
93.191   1.62700000e+03 
93.155   1.53800000e+03 
93.120   1.62200000e+03 
93.084   1.79700000e+03 
93.048   1.79600000e+03 
93.012   1.89200000e+03 
92.976   1.94300000e+03 
92.940   1.90000000e+03 
92.904   1.96300000e+03 
92.868   2.03100000e+03 
92.832   2.13400000e+03 
92.796   2.15000000e+03 
92.760   2.23000000e+03 
92.724   2.29700000e+03 
92.688   2.34400000e+03 
92.652   2.34200000e+03 
92.616   2.41100000e+03 
92.580   2.55000000e+03 
92.545   2.62700000e+03 
92.509   2.69100000e+03 
92.473   2.81600000e+03 
92.437   2.88600000e+03 
92.401   3.01900000e+03 
92.365   3.07800000e+03 
92.329   3.28100000e+03 
92.293   3.27600000e+03 
92.257   3.45200000e+03 
92.221   3.42300000e+03 
92.185   3.56900000e+03 
92.149   3.74900000e+03 
92.113   3.79500000e+03 
92.077   3.89900000e+03 
92.041   4.09100000e+03 
92.005   4.15900000e+03 
91.970   4.21700000e+03 
91.934   4.52000000e+03 
91.898   4.59400000e+03 
91.862   4.67400000e+03 
91.826   4.84500000e+03 
91.790   4.94300000e+03 
91.754   5.27100000e+03 
91.718   5.28500000e+03 
91.682   5.47900000e+03 
91.646   5.50700000e+03 
91.610   5.66900000e+03 
91.574   5.78700000e+03 
91.538   6.04900000e+03 
91.502   6.25800000e+03 
91.466   6.23700000e+03 
91.430   6.41400000e+03 
91.395   6.46800000e+03 
91.359   6.62600000e+03 
91.323   6.65900000e+03 
91.287   6.69200000e+03 
91.251   6.73000000e+03 
91.215   6.95000000e+03 
91.179   6.83500000e+03 
91.143   6.71600000e+03 
91.107   6.84700000e+03 
91.071   6.82400000e+03 
91.035   6.65000000e+03 
90.999   6.58700000e+03 
90.963   6.16000000e+03 
90.927   6.15400000e+03 
90.891   5.91200000e+03 
90.855   5.69300000e+03 
90.820   5.17700000e+03 
90.784   5.07700000e+03 
90.748   4.61500000e+03 
90.712   4.33300000e+03 
90.676   4.06800000e+03 
90.640   3.58700000e+03 
90.604   3.29400000e+03 
90.568   3.01500000e+03 
90.532   2.70700000e+03 
90.496   2.42900000e+03 
90.460   2.25400000e+03 
90.424   2.01600000e+03 
90.388   1.77600000e+03 
90.352   1.61100000e+03 
90.316   1.52800000e+03 
90.280   1.36900000e+03 
90.245   1.28400000e+03 
90.209   1.18600000e+03 
90.173   1.03200000e+03 
90.137   1.01000000e+03 
90.101   9.75000000e+02 
90.065   9.41000000e+02 
90.029   8.24000000e+02 
89.993   7.89000000e+02 
89.957   8.48000000e+02 
89.921   7.48000000e+02 
89.885   7.36000000e+02 
89.849   6.91000000e+02 
89.813   6.94000000e+02 
89.777   6.59000000e+02 
89.741   6.59000000e+02 
89.705   6.33000000e+02 
89.670   6.34000000e+02 
89.634   6.08000000e+02 
89.598   5.72000000e+02 
89.562   5.52000000e+02 
89.526   5.31000000e+02 
89.490   6.07000000e+02 
89.454   5.06000000e+02 
89.418   5.09000000e+02 

