EXPERIMENT FILE
Version = 2

[ Experiment Parameters ]
Experiment Description= <none> 
Number_of_Regions_in_Experiment= 1 

Original_File_name= C:\alexesca\data\0124Theta30.xps 
Instrument= HP ESCA West
Date= 01-24-2013
Time=  11:08:14

[ Layer Parameters ]
Layer_Type= XPS

[ Region 1 Parameters ]
Region_Description = Au 4f Dithered 94eV Center 9.2eV Width
BEcenter(eV) = 94.000000
BEwidth(eV) = 9.200000
BEstep(eV) = 0.035938
Dwell_Time(sec) = 1.000000
N_o_scans = 1  
N_o_Channels = 256  
Scan_mode = 0  (DITHERED)

[ L= 1 R= 1 ]
BEcenter= 94.000  
BEwidth= -9.164  
Excitation= 1486.600
Time_p_channel= 256.000 
Size= 256
98.582   4.97000000e+02 
98.546   4.84000000e+02 
98.510   5.02000000e+02 
98.474   5.19000000e+02 
98.438   5.06000000e+02 
98.402   5.14000000e+02 
98.366   5.24000000e+02 
98.330   4.81000000e+02 
98.295   4.82000000e+02 
98.259   5.18000000e+02 
98.223   5.15000000e+02 
98.187   5.34000000e+02 
98.151   5.03000000e+02 
98.115   5.64000000e+02 
98.079   5.05000000e+02 
98.043   5.09000000e+02 
98.007   5.48000000e+02 
97.971   5.08000000e+02 
97.935   5.73000000e+02 
97.899   5.34000000e+02 
97.863   5.25000000e+02 
97.827   5.52000000e+02 
97.791   5.54000000e+02 
97.755   5.85000000e+02 
97.720   5.58000000e+02 
97.684   5.85000000e+02 
97.648   5.79000000e+02 
97.612   5.42000000e+02 
97.576   5.70000000e+02 
97.540   5.80000000e+02 
97.504   5.98000000e+02 
97.468   6.50000000e+02 
97.432   6.29000000e+02 
97.396   6.18000000e+02 
97.360   6.60000000e+02 
97.324   6.40000000e+02 
97.288   6.78000000e+02 
97.252   7.00000000e+02 
97.216   6.09000000e+02 
97.180   6.88000000e+02 
97.145   7.09000000e+02 
97.109   6.91000000e+02 
97.073   6.91000000e+02 
97.037   8.01000000e+02 
97.001   7.78000000e+02 
96.965   7.54000000e+02 
96.929   7.85000000e+02 
96.893   8.43000000e+02 
96.857   8.58000000e+02 
96.821   8.50000000e+02 
96.785   9.14000000e+02 
96.749   8.75000000e+02 
96.713   9.10000000e+02 
96.677   9.52000000e+02 
96.641   9.85000000e+02 
96.605   9.76000000e+02 
96.570   1.02500000e+03 
96.534   1.03900000e+03 
96.498   1.03100000e+03 
96.462   1.10000000e+03 
96.426   1.14400000e+03 
96.390   1.20300000e+03 
96.354   1.14300000e+03 
96.318   1.17500000e+03 
96.282   1.20400000e+03 
96.246   1.26600000e+03 
96.210   1.24900000e+03 
96.174   1.35300000e+03 
96.138   1.33700000e+03 
96.102   1.42000000e+03 
96.066   1.40900000e+03 
96.030   1.47700000e+03 
95.995   1.48600000e+03 
95.959   1.55700000e+03 
95.923   1.55300000e+03 
95.887   1.49100000e+03 
95.851   1.67600000e+03 
95.815   1.65900000e+03 
95.779   1.67800000e+03 
95.743   1.67200000e+03 
95.707   1.83300000e+03 
95.671   1.71500000e+03 
95.635   1.85600000e+03 
95.599   1.86400000e+03 
95.563   1.84700000e+03 
95.527   1.93600000e+03 
95.491   1.99100000e+03 
95.455   1.93600000e+03 
95.420   1.97600000e+03 
95.384   1.97500000e+03 
95.348   2.05600000e+03 
95.312   2.20200000e+03 
95.276   2.13500000e+03 
95.240   2.20600000e+03 
95.204   2.31100000e+03 
95.168   2.31700000e+03 
95.132   2.30700000e+03 
95.096   2.29000000e+03 
95.060   2.28300000e+03 
95.024   2.33100000e+03 
94.988   2.31000000e+03 
94.952   2.32200000e+03 
94.916   2.42400000e+03 
94.880   2.42400000e+03 
94.845   2.29800000e+03 
94.809   2.37600000e+03 
94.773   2.37900000e+03 
94.737   2.26400000e+03 
94.701   2.29700000e+03 
94.665   2.27400000e+03 
94.629   2.27300000e+03 
94.593   2.09900000e+03 
94.557   2.13900000e+03 
94.521   2.01400000e+03 
94.485   1.94600000e+03 
94.449   1.95300000e+03 
94.413   1.85800000e+03 
94.377   1.73700000e+03 
94.341   1.70200000e+03 
94.305   1.62000000e+03 
94.270   1.53200000e+03 
94.234   1.45300000e+03 
94.198   1.33700000e+03 
94.162   1.34400000e+03 
94.126   1.20700000e+03 
94.090   1.16200000e+03 
94.054   1.05100000e+03 
94.018   1.02500000e+03 
93.982   9.19000000e+02 
93.946   9.28000000e+02 
93.910   8.65000000e+02 
93.874   8.47000000e+02 
93.838   8.03000000e+02 
93.802   7.79000000e+02 
93.766   7.00000000e+02 
93.730   7.68000000e+02 
93.695   7.01000000e+02 
93.659   8.21000000e+02 
93.623   7.37000000e+02 
93.587   7.79000000e+02 
93.551   7.68000000e+02 
93.515   7.57000000e+02 
93.479   7.23000000e+02 
93.443   7.66000000e+02 
93.407   7.79000000e+02 
93.371   7.77000000e+02 
93.335   8.09000000e+02 
93.299   8.51000000e+02 
93.263   8.17000000e+02 
93.227   8.69000000e+02 
93.191   8.89000000e+02 
93.155   8.88000000e+02 
93.120   9.13000000e+02 
93.084   9.58000000e+02 
93.048   9.73000000e+02 
93.012   9.72000000e+02 
92.976   9.94000000e+02 
92.940   1.08900000e+03 
92.904   1.10800000e+03 
92.868   1.13200000e+03 
92.832   1.15400000e+03 
92.796   1.16200000e+03 
92.760   1.25700000e+03 
92.724   1.20100000e+03 
92.688   1.30600000e+03 
92.652   1.34000000e+03 
92.616   1.34700000e+03 
92.580   1.40900000e+03 
92.545   1.39100000e+03 
92.509   1.48900000e+03 
92.473   1.50900000e+03 
92.437   1.52900000e+03 
92.401   1.55800000e+03 
92.365   1.62800000e+03 
92.329   1.66300000e+03 
92.293   1.74000000e+03 
92.257   1.69900000e+03 
92.221   1.74000000e+03 
92.185   1.84400000e+03 
92.149   1.84100000e+03 
92.113   1.82900000e+03 
92.077   1.98100000e+03 
92.041   1.88900000e+03 
92.005   2.01200000e+03 
91.970   2.10500000e+03 
91.934   2.12100000e+03 
91.898   2.22500000e+03 
91.862   2.17200000e+03 
91.826   2.21100000e+03 
91.790   2.24900000e+03 
91.754   2.30800000e+03 
91.718   2.33100000e+03 
91.682   2.40700000e+03 
91.646   2.50300000e+03 
91.610   2.54300000e+03 
91.574   2.53900000e+03 
91.538   2.64800000e+03 
91.502   2.58900000e+03 
91.466   2.63700000e+03 
91.430   2.72000000e+03 
91.395   2.72200000e+03 
91.359   2.76800000e+03 
91.323   2.72600000e+03 
91.287   2.75900000e+03 
91.251   2.76900000e+03 
91.215   2.65900000e+03 
91.179   2.84600000e+03 
91.143   2.67900000e+03 
91.107   2.65900000e+03 
91.071   2.77800000e+03 
91.035   2.65300000e+03 
90.999   2.68400000e+03 
90.963   2.61100000e+03 
90.927   2.47000000e+03 
90.891   2.47500000e+03 
90.855   2.27400000e+03 
90.820   2.22900000e+03 
90.784   2.16700000e+03 
90.748   1.99100000e+03 
90.712   1.97700000e+03 
90.676   1.77800000e+03 
90.640   1.65300000e+03 
90.604   1.59900000e+03 
90.568   1.48200000e+03 
90.532   1.36000000e+03 
90.496   1.16400000e+03 
90.460   1.14900000e+03 
90.424   1.01700000e+03 
90.388   9.31000000e+02 
90.352   8.68000000e+02 
90.316   7.46000000e+02 
90.280   6.93000000e+02 
90.245   6.31000000e+02 
90.209   6.05000000e+02 
90.173   5.55000000e+02 
90.137   4.92000000e+02 
90.101   4.81000000e+02 
90.065   4.80000000e+02 
90.029   3.93000000e+02 
89.993   4.24000000e+02 
89.957   3.86000000e+02 
89.921   3.71000000e+02 
89.885   3.48000000e+02 
89.849   3.39000000e+02 
89.813   3.43000000e+02 
89.777   3.34000000e+02 
89.741   2.87000000e+02 
89.705   2.87000000e+02 
89.670   2.46000000e+02 
89.634   2.90000000e+02 
89.598   2.74000000e+02 
89.562   2.92000000e+02 
89.526   2.86000000e+02 
89.490   2.45000000e+02 
89.454   2.41000000e+02 
89.418   2.59000000e+02 

