EXPERIMENT FILE
Version = 2

[ Experiment Parameters ]
Experiment Description= <none> 
Number_of_Regions_in_Experiment= 1 

Original_File_name= C:\alexesca\data\0124Theta5.xps 
Instrument= HP ESCA West
Date= 01-24-2013
Time=  10:15:14

[ Layer Parameters ]
Layer_Type= XPS

[ Region 1 Parameters ]
Region_Description = Au 4f Dithered 94eV Center 9.2eV Width
BEcenter(eV) = 94.000000
BEwidth(eV) = 9.200000
BEstep(eV) = 0.035938
Dwell_Time(sec) = 1.000000
N_o_scans = 1  
N_o_Channels = 256  
Scan_mode = 0  (DITHERED)

[ L= 1 R= 1 ]
BEcenter= 94.000  
BEwidth= -9.164  
Excitation= 1486.600
Time_p_channel= 256.000 
Size= 256
98.582   1.36600000e+03 
98.546   1.46300000e+03 
98.510   1.41600000e+03 
98.474   1.39700000e+03 
98.438   1.40500000e+03 
98.402   1.42800000e+03 
98.366   1.29700000e+03 
98.330   1.33900000e+03 
98.295   1.32400000e+03 
98.259   1.32600000e+03 
98.223   1.45500000e+03 
98.187   1.44800000e+03 
98.151   1.42400000e+03 
98.115   1.42600000e+03 
98.079   1.36100000e+03 
98.043   1.35400000e+03 
98.007   1.48000000e+03 
97.971   1.43300000e+03 
97.935   1.54000000e+03 
97.899   1.48600000e+03 
97.863   1.45400000e+03 
97.827   1.48900000e+03 
97.791   1.49900000e+03 
97.755   1.54000000e+03 
97.720   1.42300000e+03 
97.684   1.50400000e+03 
97.648   1.50300000e+03 
97.612   1.57800000e+03 
97.576   1.56700000e+03 
97.540   1.58200000e+03 
97.504   1.57100000e+03 
97.468   1.53800000e+03 
97.432   1.64000000e+03 
97.396   1.57200000e+03 
97.360   1.71200000e+03 
97.324   1.66600000e+03 
97.288   1.71900000e+03 
97.252   1.76400000e+03 
97.216   1.75300000e+03 
97.180   1.84500000e+03 
97.145   1.87800000e+03 
97.109   1.88700000e+03 
97.073   1.97400000e+03 
97.037   2.01500000e+03 
97.001   2.10000000e+03 
96.965   2.09200000e+03 
96.929   2.21800000e+03 
96.893   2.21400000e+03 
96.857   2.33600000e+03 
96.821   2.35700000e+03 
96.785   2.38900000e+03 
96.749   2.55800000e+03 
96.713   2.59900000e+03 
96.677   2.74100000e+03 
96.641   2.82800000e+03 
96.605   2.87900000e+03 
96.570   3.00600000e+03 
96.534   3.20700000e+03 
96.498   3.20300000e+03 
96.462   3.44000000e+03 
96.426   3.47200000e+03 
96.390   3.76700000e+03 
96.354   3.79300000e+03 
96.318   3.98400000e+03 
96.282   4.10800000e+03 
96.246   4.25900000e+03 
96.210   4.36200000e+03 
96.174   4.63500000e+03 
96.138   4.77200000e+03 
96.102   4.93500000e+03 
96.066   5.22200000e+03 
96.030   5.55100000e+03 
95.995   5.51400000e+03 
95.959   5.89600000e+03 
95.923   6.08200000e+03 
95.887   6.17400000e+03 
95.851   6.19500000e+03 
95.815   6.60000000e+03 
95.779   6.70700000e+03 
95.743   7.00800000e+03 
95.707   6.96700000e+03 
95.671   7.23400000e+03 
95.635   7.41100000e+03 
95.599   7.44200000e+03 
95.563   7.68900000e+03 
95.527   7.79500000e+03 
95.491   7.72700000e+03 
95.455   7.89300000e+03 
95.420   7.82300000e+03 
95.384   7.94000000e+03 
95.348   7.81000000e+03 
95.312   7.85700000e+03 
95.276   7.57300000e+03 
95.240   7.42900000e+03 
95.204   7.32200000e+03 
95.168   6.96500000e+03 
95.132   6.84600000e+03 
95.096   6.67300000e+03 
95.060   6.40300000e+03 
95.024   5.92300000e+03 
94.988   5.66700000e+03 
94.952   5.38100000e+03 
94.916   5.13000000e+03 
94.880   4.92800000e+03 
94.845   4.35400000e+03 
94.809   4.13600000e+03 
94.773   3.82500000e+03 
94.737   3.62200000e+03 
94.701   3.35000000e+03 
94.665   3.15100000e+03 
94.629   2.98600000e+03 
94.593   2.71500000e+03 
94.557   2.55000000e+03 
94.521   2.38300000e+03 
94.485   2.24500000e+03 
94.449   2.15400000e+03 
94.413   2.11000000e+03 
94.377   1.96600000e+03 
94.341   1.94800000e+03 
94.305   1.82700000e+03 
94.270   1.86400000e+03 
94.234   1.72300000e+03 
94.198   1.67700000e+03 
94.162   1.71900000e+03 
94.126   1.63500000e+03 
94.090   1.61700000e+03 
94.054   1.54500000e+03 
94.018   1.60300000e+03 
93.982   1.53400000e+03 
93.946   1.54000000e+03 
93.910   1.59300000e+03 
93.874   1.62100000e+03 
93.838   1.51000000e+03 
93.802   1.62000000e+03 
93.766   1.56400000e+03 
93.730   1.60900000e+03 
93.695   1.70200000e+03 
93.659   1.64500000e+03 
93.623   1.64400000e+03 
93.587   1.66500000e+03 
93.551   1.65700000e+03 
93.515   1.77100000e+03 
93.479   1.76800000e+03 
93.443   1.83000000e+03 
93.407   1.77700000e+03 
93.371   1.94400000e+03 
93.335   1.93200000e+03 
93.299   2.07800000e+03 
93.263   2.07900000e+03 
93.227   2.16300000e+03 
93.191   2.27000000e+03 
93.155   2.39600000e+03 
93.120   2.45900000e+03 
93.084   2.56900000e+03 
93.048   2.60200000e+03 
93.012   2.73700000e+03 
92.976   2.81200000e+03 
92.940   2.98800000e+03 
92.904   3.18400000e+03 
92.868   3.17200000e+03 
92.832   3.23700000e+03 
92.796   3.42800000e+03 
92.760   3.67100000e+03 
92.724   3.77900000e+03 
92.688   4.03600000e+03 
92.652   4.07900000e+03 
92.616   4.31000000e+03 
92.580   4.52600000e+03 
92.545   4.70200000e+03 
92.509   5.07500000e+03 
92.473   5.27900000e+03 
92.437   5.36500000e+03 
92.401   5.59600000e+03 
92.365   5.80700000e+03 
92.329   6.16400000e+03 
92.293   6.44300000e+03 
92.257   6.57200000e+03 
92.221   6.87700000e+03 
92.185   7.02500000e+03 
92.149   7.32600000e+03 
92.113   7.57800000e+03 
92.077   7.94600000e+03 
92.041   8.13000000e+03 
92.005   8.30200000e+03 
91.970   8.45600000e+03 
91.934   8.74800000e+03 
91.898   8.99700000e+03 
91.862   9.28000000e+03 
91.826   9.23400000e+03 
91.790   9.56600000e+03 
91.754   9.28200000e+03 
91.718   9.55500000e+03 
91.682   9.42100000e+03 
91.646   9.43000000e+03 
91.610   9.28200000e+03 
91.574   9.14100000e+03 
91.538   9.19400000e+03 
91.502   9.01300000e+03 
91.466   8.44500000e+03 
91.430   8.30200000e+03 
91.395   7.99400000e+03 
91.359   7.73200000e+03 
91.323   7.42500000e+03 
91.287   6.95900000e+03 
91.251   6.49000000e+03 
91.215   6.08400000e+03 
91.179   5.58600000e+03 
91.143   5.30700000e+03 
91.107   4.83000000e+03 
91.071   4.44500000e+03 
91.035   4.01300000e+03 
90.999   3.74700000e+03 
90.963   3.43000000e+03 
90.927   3.08300000e+03 
90.891   2.83400000e+03 
90.855   2.56800000e+03 
90.820   2.39000000e+03 
90.784   2.16600000e+03 
90.748   1.93900000e+03 
90.712   1.75100000e+03 
90.676   1.67900000e+03 
90.640   1.61700000e+03 
90.604   1.45000000e+03 
90.568   1.37500000e+03 
90.532   1.25500000e+03 
90.496   1.17900000e+03 
90.460   1.16600000e+03 
90.424   1.12800000e+03 
90.388   1.04800000e+03 
90.352   1.03700000e+03 
90.316   9.86000000e+02 
90.280   9.59000000e+02 
90.245   9.21000000e+02 
90.209   8.90000000e+02 
90.173   9.28000000e+02 
90.137   8.63000000e+02 
90.101   8.12000000e+02 
90.065   8.07000000e+02 
90.029   7.89000000e+02 
89.993   7.73000000e+02 
89.957   7.55000000e+02 
89.921   7.57000000e+02 
89.885   6.86000000e+02 
89.849   7.41000000e+02 
89.813   7.03000000e+02 
89.777   6.88000000e+02 
89.741   6.63000000e+02 
89.705   6.95000000e+02 
89.670   6.36000000e+02 
89.634   6.66000000e+02 
89.598   6.71000000e+02 
89.562   6.46000000e+02 
89.526   6.43000000e+02 
89.490   6.38000000e+02 
89.454   6.27000000e+02 
89.418   6.24000000e+02 

