EXPERIMENT FILE
Version = 2

[ Experiment Parameters ]
Experiment Description= <none> 
Number_of_Regions_in_Experiment= 1 

Original_File_name= C:\alexesca\data\0124Theta10.xps 
Instrument= HP ESCA West
Date= 01-24-2013
Time=  10:24:59

[ Layer Parameters ]
Layer_Type= XPS

[ Region 1 Parameters ]
Region_Description = Au 4f Dithered 94eV Center 9.2eV Width
BEcenter(eV) = 94.000000
BEwidth(eV) = 9.200000
BEstep(eV) = 0.035938
Dwell_Time(sec) = 1.000000
N_o_scans = 1  
N_o_Channels = 256  
Scan_mode = 0  (DITHERED)

[ L= 1 R= 1 ]
BEcenter= 94.000  
BEwidth= -9.164  
Excitation= 1486.600
Time_p_channel= 256.000 
Size= 256
98.582   1.34200000e+03 
98.546   1.37000000e+03 
98.510   1.35500000e+03 
98.474   1.37100000e+03 
98.438   1.34500000e+03 
98.402   1.39500000e+03 
98.366   1.41900000e+03 
98.330   1.37100000e+03 
98.295   1.38200000e+03 
98.259   1.39500000e+03 
98.223   1.42500000e+03 
98.187   1.41400000e+03 
98.151   1.48100000e+03 
98.115   1.41500000e+03 
98.079   1.45100000e+03 
98.043   1.43000000e+03 
98.007   1.45800000e+03 
97.971   1.46000000e+03 
97.935   1.39700000e+03 
97.899   1.42100000e+03 
97.863   1.54400000e+03 
97.827   1.53000000e+03 
97.791   1.49400000e+03 
97.755   1.60100000e+03 
97.720   1.51200000e+03 
97.684   1.47500000e+03 
97.648   1.47200000e+03 
97.612   1.55700000e+03 
97.576   1.53000000e+03 
97.540   1.53300000e+03 
97.504   1.57700000e+03 
97.468   1.54500000e+03 
97.432   1.60400000e+03 
97.396   1.64100000e+03 
97.360   1.66200000e+03 
97.324   1.67300000e+03 
97.288   1.69900000e+03 
97.252   1.77000000e+03 
97.216   1.68400000e+03 
97.180   1.74900000e+03 
97.145   1.81800000e+03 
97.109   1.84100000e+03 
97.073   1.84400000e+03 
97.037   1.91900000e+03 
97.001   1.94700000e+03 
96.965   1.95100000e+03 
96.929   2.04400000e+03 
96.893   2.14900000e+03 
96.857   2.22500000e+03 
96.821   2.18000000e+03 
96.785   2.25200000e+03 
96.749   2.39300000e+03 
96.713   2.50700000e+03 
96.677   2.38800000e+03 
96.641   2.62200000e+03 
96.605   2.62900000e+03 
96.570   2.72500000e+03 
96.534   2.79500000e+03 
96.498   2.87300000e+03 
96.462   3.01200000e+03 
96.426   3.20900000e+03 
96.390   3.32800000e+03 
96.354   3.33200000e+03 
96.318   3.43500000e+03 
96.282   3.55100000e+03 
96.246   3.75300000e+03 
96.210   3.88400000e+03 
96.174   4.07200000e+03 
96.138   4.18900000e+03 
96.102   4.33200000e+03 
96.066   4.50500000e+03 
96.030   4.58500000e+03 
95.995   4.80900000e+03 
95.959   5.06200000e+03 
95.923   5.07000000e+03 
95.887   5.20400000e+03 
95.851   5.50200000e+03 
95.815   5.54100000e+03 
95.779   5.70000000e+03 
95.743   6.04300000e+03 
95.707   6.16700000e+03 
95.671   6.32100000e+03 
95.635   6.41700000e+03 
95.599   6.57000000e+03 
95.563   6.85800000e+03 
95.527   7.05700000e+03 
95.491   7.12200000e+03 
95.455   7.46800000e+03 
95.420   7.50900000e+03 
95.384   7.54600000e+03 
95.348   7.70700000e+03 
95.312   8.01200000e+03 
95.276   7.84400000e+03 
95.240   7.87700000e+03 
95.204   8.17400000e+03 
95.168   7.90300000e+03 
95.132   7.88700000e+03 
95.096   7.76600000e+03 
95.060   7.64100000e+03 
95.024   7.81300000e+03 
94.988   7.52500000e+03 
94.952   7.38800000e+03 
94.916   7.07300000e+03 
94.880   6.74700000e+03 
94.845   6.42900000e+03 
94.809   6.25100000e+03 
94.773   5.78800000e+03 
94.737   5.39200000e+03 
94.701   5.25000000e+03 
94.665   4.65200000e+03 
94.629   4.47000000e+03 
94.593   4.15800000e+03 
94.557   3.90100000e+03 
94.521   3.61300000e+03 
94.485   3.30200000e+03 
94.449   3.11600000e+03 
94.413   2.85000000e+03 
94.377   2.70400000e+03 
94.341   2.53900000e+03 
94.305   2.45900000e+03 
94.270   2.34400000e+03 
94.234   2.24700000e+03 
94.198   2.13100000e+03 
94.162   2.00500000e+03 
94.126   1.93100000e+03 
94.090   1.85800000e+03 
94.054   1.79900000e+03 
94.018   1.81700000e+03 
93.982   1.77800000e+03 
93.946   1.74200000e+03 
93.910   1.76900000e+03 
93.874   1.71300000e+03 
93.838   1.65300000e+03 
93.802   1.72700000e+03 
93.766   1.69500000e+03 
93.730   1.72600000e+03 
93.695   1.70300000e+03 
93.659   1.74700000e+03 
93.623   1.66100000e+03 
93.587   1.77200000e+03 
93.551   1.74700000e+03 
93.515   1.76600000e+03 
93.479   1.89900000e+03 
93.443   1.82000000e+03 
93.407   1.92200000e+03 
93.371   1.82200000e+03 
93.335   1.95200000e+03 
93.299   2.01500000e+03 
93.263   2.02000000e+03 
93.227   2.02100000e+03 
93.191   2.17700000e+03 
93.155   2.16100000e+03 
93.120   2.29700000e+03 
93.084   2.38200000e+03 
93.048   2.48500000e+03 
93.012   2.44200000e+03 
92.976   2.65700000e+03 
92.940   2.74300000e+03 
92.904   2.86200000e+03 
92.868   2.91700000e+03 
92.832   3.08200000e+03 
92.796   3.16500000e+03 
92.760   3.22900000e+03 
92.724   3.42400000e+03 
92.688   3.61700000e+03 
92.652   3.54200000e+03 
92.616   3.77400000e+03 
92.580   4.03500000e+03 
92.545   4.27100000e+03 
92.509   4.21400000e+03 
92.473   4.54500000e+03 
92.437   4.71200000e+03 
92.401   4.98200000e+03 
92.365   4.96300000e+03 
92.329   5.28500000e+03 
92.293   5.52000000e+03 
92.257   5.64800000e+03 
92.221   5.94700000e+03 
92.185   6.11100000e+03 
92.149   6.40800000e+03 
92.113   6.55900000e+03 
92.077   6.78700000e+03 
92.041   7.10300000e+03 
92.005   7.20800000e+03 
91.970   7.55600000e+03 
91.934   7.77900000e+03 
91.898   7.97400000e+03 
91.862   8.23500000e+03 
91.826   8.36000000e+03 
91.790   8.63200000e+03 
91.754   8.76900000e+03 
91.718   8.80100000e+03 
91.682   9.14900000e+03 
91.646   9.41200000e+03 
91.610   9.26300000e+03 
91.574   9.42100000e+03 
91.538   9.38400000e+03 
91.502   9.58200000e+03 
91.466   9.45700000e+03 
91.430   9.41700000e+03 
91.395   9.14900000e+03 
91.359   9.11000000e+03 
91.323   9.01300000e+03 
91.287   8.70300000e+03 
91.251   8.36100000e+03 
91.215   8.12200000e+03 
91.179   7.58700000e+03 
91.143   7.45500000e+03 
91.107   6.81600000e+03 
91.071   6.63500000e+03 
91.035   5.94200000e+03 
90.999   5.54300000e+03 
90.963   5.22100000e+03 
90.927   4.70400000e+03 
90.891   4.23900000e+03 
90.855   3.84000000e+03 
90.820   3.50400000e+03 
90.784   3.27800000e+03 
90.748   2.87900000e+03 
90.712   2.60200000e+03 
90.676   2.37100000e+03 
90.640   2.21100000e+03 
90.604   2.04500000e+03 
90.568   1.74600000e+03 
90.532   1.72200000e+03 
90.496   1.59100000e+03 
90.460   1.45900000e+03 
90.424   1.36200000e+03 
90.388   1.31200000e+03 
90.352   1.21400000e+03 
90.316   1.16100000e+03 
90.280   1.07000000e+03 
90.245   1.03100000e+03 
90.209   1.00000000e+03 
90.173   1.00400000e+03 
90.137   9.54000000e+02 
90.101   9.47000000e+02 
90.065   9.01000000e+02 
90.029   8.97000000e+02 
89.993   8.11000000e+02 
89.957   8.02000000e+02 
89.921   7.90000000e+02 
89.885   7.59000000e+02 
89.849   7.90000000e+02 
89.813   7.13000000e+02 
89.777   7.72000000e+02 
89.741   7.35000000e+02 
89.705   6.89000000e+02 
89.670   7.44000000e+02 
89.634   7.51000000e+02 
89.598   6.81000000e+02 
89.562   6.75000000e+02 
89.526   6.47000000e+02 
89.490   6.52000000e+02 
89.454   6.41000000e+02 
89.418   6.68000000e+02 

