EXPERIMENT FILE
Version = 2

[ Experiment Parameters ]
Experiment Description= <none> 
Number_of_Regions_in_Experiment= 1 

Original_File_name= C:\alexesca\data\0124Theta15.xps 
Instrument= HP ESCA West
Date= 01-24-2013
Time=  10:34:57

[ Layer Parameters ]
Layer_Type= XPS

[ Region 1 Parameters ]
Region_Description = Au 4f Dithered 94eV Center 9.2eV Width
BEcenter(eV) = 94.000000
BEwidth(eV) = 9.200000
BEstep(eV) = 0.035938
Dwell_Time(sec) = 1.000000
N_o_scans = 1  
N_o_Channels = 256  
Scan_mode = 0  (DITHERED)

[ L= 1 R= 1 ]
BEcenter= 94.000  
BEwidth= -9.164  
Excitation= 1486.600
Time_p_channel= 256.000 
Size= 256
98.582   1.28500000e+03 
98.546   1.26900000e+03 
98.510   1.35200000e+03 
98.474   1.34500000e+03 
98.438   1.31800000e+03 
98.402   1.33500000e+03 
98.366   1.34200000e+03 
98.330   1.24100000e+03 
98.295   1.33400000e+03 
98.259   1.39800000e+03 
98.223   1.36300000e+03 
98.187   1.32400000e+03 
98.151   1.41800000e+03 
98.115   1.30300000e+03 
98.079   1.35400000e+03 
98.043   1.33300000e+03 
98.007   1.42000000e+03 
97.971   1.40300000e+03 
97.935   1.40300000e+03 
97.899   1.39000000e+03 
97.863   1.42300000e+03 
97.827   1.41300000e+03 
97.791   1.43400000e+03 
97.755   1.40900000e+03 
97.720   1.42600000e+03 
97.684   1.45600000e+03 
97.648   1.46400000e+03 
97.612   1.50200000e+03 
97.576   1.43500000e+03 
97.540   1.53000000e+03 
97.504   1.52100000e+03 
97.468   1.51000000e+03 
97.432   1.57200000e+03 
97.396   1.49900000e+03 
97.360   1.61900000e+03 
97.324   1.53100000e+03 
97.288   1.69400000e+03 
97.252   1.67300000e+03 
97.216   1.65800000e+03 
97.180   1.74600000e+03 
97.145   1.70200000e+03 
97.109   1.76300000e+03 
97.073   1.77600000e+03 
97.037   1.80400000e+03 
97.001   1.80600000e+03 
96.965   1.92100000e+03 
96.929   1.91300000e+03 
96.893   1.96300000e+03 
96.857   1.96700000e+03 
96.821   2.05100000e+03 
96.785   2.07500000e+03 
96.749   2.13000000e+03 
96.713   2.15900000e+03 
96.677   2.27400000e+03 
96.641   2.22300000e+03 
96.605   2.38800000e+03 
96.570   2.52800000e+03 
96.534   2.58200000e+03 
96.498   2.58500000e+03 
96.462   2.67100000e+03 
96.426   2.83800000e+03 
96.390   2.82800000e+03 
96.354   2.89400000e+03 
96.318   3.03700000e+03 
96.282   3.09400000e+03 
96.246   3.24400000e+03 
96.210   3.38300000e+03 
96.174   3.34800000e+03 
96.138   3.58500000e+03 
96.102   3.61200000e+03 
96.066   3.73000000e+03 
96.030   3.77000000e+03 
95.995   3.87500000e+03 
95.959   4.08000000e+03 
95.923   4.33600000e+03 
95.887   4.43400000e+03 
95.851   4.51600000e+03 
95.815   4.60300000e+03 
95.779   4.84600000e+03 
95.743   4.83000000e+03 
95.707   5.09800000e+03 
95.671   5.28900000e+03 
95.635   5.38000000e+03 
95.599   5.46900000e+03 
95.563   5.71500000e+03 
95.527   5.88800000e+03 
95.491   6.06600000e+03 
95.455   6.03800000e+03 
95.420   6.29700000e+03 
95.384   6.52400000e+03 
95.348   6.61300000e+03 
95.312   6.84300000e+03 
95.276   6.76800000e+03 
95.240   7.10800000e+03 
95.204   7.20300000e+03 
95.168   7.23500000e+03 
95.132   7.34000000e+03 
95.096   7.42400000e+03 
95.060   7.42100000e+03 
95.024   7.47000000e+03 
94.988   7.37600000e+03 
94.952   7.53100000e+03 
94.916   7.43600000e+03 
94.880   7.30400000e+03 
94.845   7.12600000e+03 
94.809   6.95700000e+03 
94.773   6.76000000e+03 
94.737   6.55700000e+03 
94.701   6.20400000e+03 
94.665   6.01200000e+03 
94.629   5.77900000e+03 
94.593   5.43900000e+03 
94.557   5.05200000e+03 
94.521   4.72900000e+03 
94.485   4.40900000e+03 
94.449   3.99100000e+03 
94.413   3.79000000e+03 
94.377   3.49500000e+03 
94.341   3.18600000e+03 
94.305   3.02300000e+03 
94.270   2.81100000e+03 
94.234   2.61400000e+03 
94.198   2.42800000e+03 
94.162   2.27300000e+03 
94.126   2.28700000e+03 
94.090   2.08900000e+03 
94.054   1.93000000e+03 
94.018   2.08000000e+03 
93.982   1.86700000e+03 
93.946   1.80800000e+03 
93.910   1.80000000e+03 
93.874   1.81400000e+03 
93.838   1.70200000e+03 
93.802   1.59100000e+03 
93.766   1.72300000e+03 
93.730   1.67500000e+03 
93.695   1.62200000e+03 
93.659   1.58700000e+03 
93.623   1.71600000e+03 
93.587   1.69800000e+03 
93.551   1.74400000e+03 
93.515   1.69200000e+03 
93.479   1.73900000e+03 
93.443   1.65300000e+03 
93.407   1.70300000e+03 
93.371   1.75400000e+03 
93.335   1.72000000e+03 
93.299   1.79300000e+03 
93.263   1.95400000e+03 
93.227   1.92500000e+03 
93.191   2.05900000e+03 
93.155   1.95800000e+03 
93.120   2.05900000e+03 
93.084   2.16800000e+03 
93.048   2.20000000e+03 
93.012   2.20100000e+03 
92.976   2.31200000e+03 
92.940   2.37500000e+03 
92.904   2.44100000e+03 
92.868   2.53700000e+03 
92.832   2.64800000e+03 
92.796   2.64700000e+03 
92.760   2.87900000e+03 
92.724   3.00600000e+03 
92.688   3.06900000e+03 
92.652   3.05700000e+03 
92.616   3.26900000e+03 
92.580   3.31200000e+03 
92.545   3.42900000e+03 
92.509   3.54300000e+03 
92.473   3.71900000e+03 
92.437   3.91700000e+03 
92.401   4.04600000e+03 
92.365   4.17200000e+03 
92.329   4.34500000e+03 
92.293   4.43800000e+03 
92.257   4.68200000e+03 
92.221   4.65900000e+03 
92.185   4.87400000e+03 
92.149   5.06600000e+03 
92.113   5.45900000e+03 
92.077   5.53600000e+03 
92.041   5.67200000e+03 
92.005   5.97300000e+03 
91.970   6.04400000e+03 
91.934   6.28300000e+03 
91.898   6.50600000e+03 
91.862   6.66000000e+03 
91.826   6.87400000e+03 
91.790   7.09400000e+03 
91.754   7.40000000e+03 
91.718   7.58300000e+03 
91.682   7.68800000e+03 
91.646   7.80300000e+03 
91.610   8.14000000e+03 
91.574   8.33300000e+03 
91.538   8.34800000e+03 
91.502   8.57000000e+03 
91.466   8.68800000e+03 
91.430   8.80800000e+03 
91.395   8.88500000e+03 
91.359   8.80700000e+03 
91.323   8.95800000e+03 
91.287   8.82700000e+03 
91.251   8.62600000e+03 
91.215   8.60900000e+03 
91.179   8.62800000e+03 
91.143   8.27600000e+03 
91.107   7.96400000e+03 
91.071   7.75600000e+03 
91.035   7.34700000e+03 
90.999   7.09700000e+03 
90.963   6.69400000e+03 
90.927   6.21500000e+03 
90.891   5.83600000e+03 
90.855   5.38200000e+03 
90.820   4.89900000e+03 
90.784   4.64000000e+03 
90.748   4.13200000e+03 
90.712   3.80200000e+03 
90.676   3.39600000e+03 
90.640   3.04100000e+03 
90.604   2.74000000e+03 
90.568   2.54000000e+03 
90.532   2.32100000e+03 
90.496   2.04000000e+03 
90.460   1.89600000e+03 
90.424   1.70300000e+03 
90.388   1.61400000e+03 
90.352   1.44500000e+03 
90.316   1.40100000e+03 
90.280   1.32100000e+03 
90.245   1.17600000e+03 
90.209   1.22600000e+03 
90.173   1.06300000e+03 
90.137   1.03100000e+03 
90.101   9.77000000e+02 
90.065   9.28000000e+02 
90.029   9.23000000e+02 
89.993   9.24000000e+02 
89.957   9.09000000e+02 
89.921   8.10000000e+02 
89.885   8.23000000e+02 
89.849   7.68000000e+02 
89.813   7.69000000e+02 
89.777   7.47000000e+02 
89.741   7.65000000e+02 
89.705   7.40000000e+02 
89.670   7.18000000e+02 
89.634   6.87000000e+02 
89.598   6.70000000e+02 
89.562   6.94000000e+02 
89.526   6.48000000e+02 
89.490   6.56000000e+02 
89.454   6.53000000e+02 
89.418   5.90000000e+02 

