EXPERIMENT FILE
Version = 2

[ Experiment Parameters ]
Experiment Description= <none> 
Number_of_Regions_in_Experiment= 1 

Original_File_name= C:\alexesca\data\0124Theta25.xps 
Instrument= HP ESCA West
Date= 01-24-2013
Time=  10:58:33

[ Layer Parameters ]
Layer_Type= XPS

[ Region 1 Parameters ]
Region_Description = Au 4f Dithered 94eV Center 9.2eV Width
BEcenter(eV) = 94.000000
BEwidth(eV) = 9.200000
BEstep(eV) = 0.035938
Dwell_Time(sec) = 1.000000
N_o_scans = 1  
N_o_Channels = 256  
Scan_mode = 0  (DITHERED)

[ L= 1 R= 1 ]
BEcenter= 94.000  
BEwidth= -9.164  
Excitation= 1486.600
Time_p_channel= 256.000 
Size= 256
98.582   7.75000000e+02 
98.546   7.78000000e+02 
98.510   7.12000000e+02 
98.474   7.91000000e+02 
98.438   7.87000000e+02 
98.402   7.70000000e+02 
98.366   7.61000000e+02 
98.330   7.67000000e+02 
98.295   7.76000000e+02 
98.259   7.95000000e+02 
98.223   7.25000000e+02 
98.187   7.27000000e+02 
98.151   7.83000000e+02 
98.115   7.88000000e+02 
98.079   7.96000000e+02 
98.043   7.96000000e+02 
98.007   7.75000000e+02 
97.971   8.10000000e+02 
97.935   8.26000000e+02 
97.899   8.05000000e+02 
97.863   8.13000000e+02 
97.827   8.36000000e+02 
97.791   7.87000000e+02 
97.755   8.62000000e+02 
97.720   8.22000000e+02 
97.684   8.51000000e+02 
97.648   8.99000000e+02 
97.612   8.62000000e+02 
97.576   8.27000000e+02 
97.540   9.02000000e+02 
97.504   8.88000000e+02 
97.468   8.83000000e+02 
97.432   9.27000000e+02 
97.396   9.23000000e+02 
97.360   9.24000000e+02 
97.324   9.00000000e+02 
97.288   9.02000000e+02 
97.252   9.41000000e+02 
97.216   1.01900000e+03 
97.180   9.85000000e+02 
97.145   1.12400000e+03 
97.109   1.02300000e+03 
97.073   1.02500000e+03 
97.037   1.11700000e+03 
97.001   1.09800000e+03 
96.965   1.14000000e+03 
96.929   1.14300000e+03 
96.893   1.17300000e+03 
96.857   1.26500000e+03 
96.821   1.23200000e+03 
96.785   1.32500000e+03 
96.749   1.30900000e+03 
96.713   1.36700000e+03 
96.677   1.30700000e+03 
96.641   1.41100000e+03 
96.605   1.39200000e+03 
96.570   1.48600000e+03 
96.534   1.42300000e+03 
96.498   1.53900000e+03 
96.462   1.58300000e+03 
96.426   1.60600000e+03 
96.390   1.66900000e+03 
96.354   1.72900000e+03 
96.318   1.73600000e+03 
96.282   1.76700000e+03 
96.246   1.86800000e+03 
96.210   1.91200000e+03 
96.174   1.93000000e+03 
96.138   2.02200000e+03 
96.102   2.05200000e+03 
96.066   2.09100000e+03 
96.030   2.13900000e+03 
95.995   2.23600000e+03 
95.959   2.23900000e+03 
95.923   2.29000000e+03 
95.887   2.42100000e+03 
95.851   2.33200000e+03 
95.815   2.42400000e+03 
95.779   2.48800000e+03 
95.743   2.63200000e+03 
95.707   2.65100000e+03 
95.671   2.74400000e+03 
95.635   2.85200000e+03 
95.599   2.92100000e+03 
95.563   2.89700000e+03 
95.527   2.99500000e+03 
95.491   3.08400000e+03 
95.455   3.10300000e+03 
95.420   3.25100000e+03 
95.384   3.24600000e+03 
95.348   3.33200000e+03 
95.312   3.35200000e+03 
95.276   3.44500000e+03 
95.240   3.45100000e+03 
95.204   3.53800000e+03 
95.168   3.70600000e+03 
95.132   3.74300000e+03 
95.096   3.71000000e+03 
95.060   3.72200000e+03 
95.024   3.85100000e+03 
94.988   3.94200000e+03 
94.952   3.85900000e+03 
94.916   3.98000000e+03 
94.880   3.91600000e+03 
94.845   3.96800000e+03 
94.809   3.99500000e+03 
94.773   3.94900000e+03 
94.737   3.93200000e+03 
94.701   3.80500000e+03 
94.665   3.70300000e+03 
94.629   3.72900000e+03 
94.593   3.58900000e+03 
94.557   3.59600000e+03 
94.521   3.36800000e+03 
94.485   3.26200000e+03 
94.449   3.07100000e+03 
94.413   3.01100000e+03 
94.377   2.82200000e+03 
94.341   2.69400000e+03 
94.305   2.51000000e+03 
94.270   2.34200000e+03 
94.234   2.19300000e+03 
94.198   2.04500000e+03 
94.162   1.96600000e+03 
94.126   1.81000000e+03 
94.090   1.58300000e+03 
94.054   1.48300000e+03 
94.018   1.40300000e+03 
93.982   1.38200000e+03 
93.946   1.25200000e+03 
93.910   1.24900000e+03 
93.874   1.14600000e+03 
93.838   1.16700000e+03 
93.802   1.10100000e+03 
93.766   1.18500000e+03 
93.730   1.16100000e+03 
93.695   1.13400000e+03 
93.659   1.09000000e+03 
93.623   1.04600000e+03 
93.587   1.04400000e+03 
93.551   1.04600000e+03 
93.515   1.04300000e+03 
93.479   1.03900000e+03 
93.443   1.07400000e+03 
93.407   1.13500000e+03 
93.371   1.12100000e+03 
93.335   1.16800000e+03 
93.299   1.16200000e+03 
93.263   1.21000000e+03 
93.227   1.13400000e+03 
93.191   1.19800000e+03 
93.155   1.28100000e+03 
93.120   1.30200000e+03 
93.084   1.32100000e+03 
93.048   1.29900000e+03 
93.012   1.36900000e+03 
92.976   1.40400000e+03 
92.940   1.38700000e+03 
92.904   1.48100000e+03 
92.868   1.55900000e+03 
92.832   1.56000000e+03 
92.796   1.61300000e+03 
92.760   1.69200000e+03 
92.724   1.68700000e+03 
92.688   1.75800000e+03 
92.652   1.81500000e+03 
92.616   1.87600000e+03 
92.580   1.90400000e+03 
92.545   2.02600000e+03 
92.509   2.01800000e+03 
92.473   2.08100000e+03 
92.437   2.17700000e+03 
92.401   2.30400000e+03 
92.365   2.24100000e+03 
92.329   2.30200000e+03 
92.293   2.48400000e+03 
92.257   2.43000000e+03 
92.221   2.47000000e+03 
92.185   2.47800000e+03 
92.149   2.69600000e+03 
92.113   2.76800000e+03 
92.077   2.76700000e+03 
92.041   2.94500000e+03 
92.005   2.94100000e+03 
91.970   3.07200000e+03 
91.934   3.12600000e+03 
91.898   3.17500000e+03 
91.862   3.34300000e+03 
91.826   3.48800000e+03 
91.790   3.56800000e+03 
91.754   3.58200000e+03 
91.718   3.60200000e+03 
91.682   3.79000000e+03 
91.646   3.78500000e+03 
91.610   3.85800000e+03 
91.574   4.03700000e+03 
91.538   3.99700000e+03 
91.502   4.08600000e+03 
91.466   4.10800000e+03 
91.430   4.22900000e+03 
91.395   4.28300000e+03 
91.359   4.44300000e+03 
91.323   4.43900000e+03 
91.287   4.55200000e+03 
91.251   4.60500000e+03 
91.215   4.54100000e+03 
91.179   4.57300000e+03 
91.143   4.67900000e+03 
91.107   4.55200000e+03 
91.071   4.65500000e+03 
91.035   4.34400000e+03 
90.999   4.46200000e+03 
90.963   4.45000000e+03 
90.927   4.28200000e+03 
90.891   4.15200000e+03 
90.855   3.97900000e+03 
90.820   3.87400000e+03 
90.784   3.67000000e+03 
90.748   3.43900000e+03 
90.712   3.22400000e+03 
90.676   3.02100000e+03 
90.640   2.83700000e+03 
90.604   2.60500000e+03 
90.568   2.46300000e+03 
90.532   2.15600000e+03 
90.496   2.01600000e+03 
90.460   1.80500000e+03 
90.424   1.59600000e+03 
90.388   1.41600000e+03 
90.352   1.34600000e+03 
90.316   1.22000000e+03 
90.280   1.07400000e+03 
90.245   9.78000000e+02 
90.209   9.13000000e+02 
90.173   7.96000000e+02 
90.137   8.47000000e+02 
90.101   7.45000000e+02 
90.065   7.22000000e+02 
90.029   6.79000000e+02 
89.993   6.17000000e+02 
89.957   5.38000000e+02 
89.921   5.77000000e+02 
89.885   4.87000000e+02 
89.849   5.34000000e+02 
89.813   4.83000000e+02 
89.777   4.86000000e+02 
89.741   4.67000000e+02 
89.705   4.60000000e+02 
89.670   4.32000000e+02 
89.634   4.64000000e+02 
89.598   4.21000000e+02 
89.562   4.10000000e+02 
89.526   4.26000000e+02 
89.490   4.17000000e+02 
89.454   3.72000000e+02 
89.418   3.74000000e+02 

