EXPERIMENT FILE
Version = 2

[ Experiment Parameters ]
Experiment Description= <none> 
Number_of_Regions_in_Experiment= 1 

Original_File_name= C:\alexesca\data\0201Theta10.xps 
Instrument= HP ESCA West
Date= 02-01-2013
Time=  14:00:05

[ Layer Parameters ]
Layer_Type= XPS

[ Region 1 Parameters ]
Region_Description = Au 4f Dithered 94eV Center 9.2eV Width
BEcenter(eV) = 94.000000
BEwidth(eV) = 9.200000
BEstep(eV) = 0.035937
Dwell_Time(sec) = 1.000000
N_o_scans = 1  
N_o_Channels = 256  
Scan_mode = 0  (DITHERED)

[ L= 1 R= 1 ]
BEcenter= 94.000  
BEwidth= -9.164  
Excitation= 1486.600
Time_p_channel= 256.000 
Size= 256
98.582   1.21500000e+03 
98.546   1.26500000e+03 
98.510   1.24200000e+03 
98.474   1.21700000e+03 
98.438   1.22700000e+03 
98.402   1.25500000e+03 
98.366   1.17900000e+03 
98.330   1.30200000e+03 
98.295   1.25600000e+03 
98.259   1.18900000e+03 
98.223   1.25500000e+03 
98.187   1.33100000e+03 
98.151   1.26900000e+03 
98.115   1.25800000e+03 
98.079   1.22600000e+03 
98.043   1.21900000e+03 
98.007   1.21100000e+03 
97.971   1.23400000e+03 
97.935   1.27500000e+03 
97.899   1.27900000e+03 
97.863   1.25300000e+03 
97.827   1.29600000e+03 
97.791   1.33200000e+03 
97.755   1.34600000e+03 
97.720   1.30900000e+03 
97.684   1.31500000e+03 
97.648   1.37800000e+03 
97.612   1.33600000e+03 
97.576   1.35300000e+03 
97.540   1.35300000e+03 
97.504   1.42300000e+03 
97.468   1.47700000e+03 
97.432   1.50600000e+03 
97.396   1.53400000e+03 
97.360   1.50600000e+03 
97.324   1.51300000e+03 
97.288   1.54400000e+03 
97.252   1.55800000e+03 
97.216   1.55300000e+03 
97.180   1.59300000e+03 
97.145   1.71000000e+03 
97.109   1.71500000e+03 
97.073   1.75100000e+03 
97.037   1.84700000e+03 
97.001   1.86100000e+03 
96.965   2.01800000e+03 
96.929   1.98400000e+03 
96.893   2.14900000e+03 
96.857   2.21500000e+03 
96.821   2.26100000e+03 
96.785   2.35500000e+03 
96.749   2.34000000e+03 
96.713   2.60600000e+03 
96.677   2.64700000e+03 
96.641   2.71500000e+03 
96.605   2.89700000e+03 
96.570   2.93900000e+03 
96.534   3.14500000e+03 
96.498   3.25100000e+03 
96.462   3.38100000e+03 
96.426   3.58100000e+03 
96.390   3.75700000e+03 
96.354   3.90300000e+03 
96.318   4.12000000e+03 
96.282   4.12400000e+03 
96.246   4.29900000e+03 
96.210   4.47700000e+03 
96.174   4.61200000e+03 
96.138   4.99800000e+03 
96.102   5.19000000e+03 
96.066   5.34700000e+03 
96.030   5.53800000e+03 
95.995   5.75000000e+03 
95.959   5.96500000e+03 
95.923   6.06800000e+03 
95.887   6.28000000e+03 
95.851   6.52400000e+03 
95.815   6.72800000e+03 
95.779   6.79800000e+03 
95.743   6.86700000e+03 
95.707   7.06000000e+03 
95.671   7.11400000e+03 
95.635   7.09700000e+03 
95.599   7.21100000e+03 
95.563   7.10600000e+03 
95.527   7.23500000e+03 
95.491   7.05600000e+03 
95.455   6.90800000e+03 
95.420   6.73000000e+03 
95.384   6.53600000e+03 
95.348   6.46600000e+03 
95.312   6.32300000e+03 
95.276   5.88100000e+03 
95.240   5.52300000e+03 
95.204   5.41300000e+03 
95.168   5.08400000e+03 
95.132   4.86900000e+03 
95.096   4.69200000e+03 
95.060   4.29200000e+03 
95.024   3.98000000e+03 
94.988   3.83200000e+03 
94.952   3.62200000e+03 
94.916   3.24900000e+03 
94.880   3.10700000e+03 
94.845   2.87100000e+03 
94.809   2.71800000e+03 
94.773   2.47200000e+03 
94.737   2.40500000e+03 
94.701   2.24000000e+03 
94.665   2.00800000e+03 
94.629   1.95800000e+03 
94.593   1.91200000e+03 
94.557   1.75000000e+03 
94.521   1.74600000e+03 
94.485   1.77000000e+03 
94.449   1.62400000e+03 
94.413   1.57200000e+03 
94.377   1.51100000e+03 
94.341   1.48400000e+03 
94.305   1.48100000e+03 
94.270   1.44900000e+03 
94.234   1.45000000e+03 
94.198   1.31400000e+03 
94.162   1.33600000e+03 
94.126   1.35200000e+03 
94.090   1.40400000e+03 
94.054   1.33100000e+03 
94.018   1.34100000e+03 
93.982   1.36500000e+03 
93.946   1.37800000e+03 
93.910   1.24700000e+03 
93.874   1.35600000e+03 
93.838   1.38000000e+03 
93.802   1.36900000e+03 
93.766   1.32400000e+03 
93.730   1.44400000e+03 
93.695   1.40600000e+03 
93.659   1.44700000e+03 
93.623   1.45800000e+03 
93.587   1.48200000e+03 
93.551   1.50600000e+03 
93.515   1.49000000e+03 
93.479   1.63300000e+03 
93.443   1.56600000e+03 
93.407   1.51600000e+03 
93.371   1.69800000e+03 
93.335   1.83400000e+03 
93.299   1.85900000e+03 
93.263   1.87500000e+03 
93.227   2.02600000e+03 
93.191   1.93800000e+03 
93.155   2.15300000e+03 
93.120   2.36500000e+03 
93.084   2.38300000e+03 
93.048   2.41000000e+03 
93.012   2.61700000e+03 
92.976   2.66500000e+03 
92.940   2.84300000e+03 
92.904   2.90600000e+03 
92.868   3.08300000e+03 
92.832   3.14300000e+03 
92.796   3.37400000e+03 
92.760   3.55500000e+03 
92.724   3.68300000e+03 
92.688   4.02300000e+03 
92.652   4.11200000e+03 
92.616   4.26300000e+03 
92.580   4.53400000e+03 
92.545   4.83100000e+03 
92.509   5.08800000e+03 
92.473   5.40400000e+03 
92.437   5.59300000e+03 
92.401   5.70500000e+03 
92.365   5.90200000e+03 
92.329   6.12600000e+03 
92.293   6.40900000e+03 
92.257   6.78200000e+03 
92.221   7.02000000e+03 
92.185   7.21900000e+03 
92.149   7.47300000e+03 
92.113   7.63200000e+03 
92.077   7.82200000e+03 
92.041   8.08700000e+03 
92.005   8.29700000e+03 
91.970   8.36000000e+03 
91.934   8.28800000e+03 
91.898   8.57900000e+03 
91.862   8.66900000e+03 
91.826   8.59800000e+03 
91.790   8.49800000e+03 
91.754   8.45700000e+03 
91.718   8.35400000e+03 
91.682   8.31700000e+03 
91.646   7.96600000e+03 
91.610   7.61700000e+03 
91.574   7.27800000e+03 
91.538   7.07200000e+03 
91.502   6.93600000e+03 
91.466   6.49400000e+03 
91.430   5.93500000e+03 
91.395   5.67300000e+03 
91.359   5.21200000e+03 
91.323   4.81600000e+03 
91.287   4.57000000e+03 
91.251   4.14100000e+03 
91.215   3.85100000e+03 
91.179   3.47400000e+03 
91.143   3.12100000e+03 
91.107   2.88300000e+03 
91.071   2.59100000e+03 
91.035   2.40900000e+03 
90.999   2.26500000e+03 
90.963   1.99200000e+03 
90.927   1.85700000e+03 
90.891   1.77300000e+03 
90.855   1.51500000e+03 
90.820   1.44300000e+03 
90.784   1.35800000e+03 
90.748   1.31100000e+03 
90.712   1.19300000e+03 
90.676   1.13900000e+03 
90.640   1.02800000e+03 
90.604   1.00800000e+03 
90.568   9.88000000e+02 
90.532   8.86000000e+02 
90.496   9.20000000e+02 
90.460   8.39000000e+02 
90.424   8.24000000e+02 
90.388   7.69000000e+02 
90.352   7.39000000e+02 
90.316   7.95000000e+02 
90.280   6.86000000e+02 
90.245   7.76000000e+02 
90.209   6.76000000e+02 
90.173   7.39000000e+02 
90.137   6.82000000e+02 
90.101   6.46000000e+02 
90.065   6.75000000e+02 
90.029   6.46000000e+02 
89.993   6.24000000e+02 
89.957   6.37000000e+02 
89.921   6.11000000e+02 
89.885   6.07000000e+02 
89.849   6.15000000e+02 
89.813   6.20000000e+02 
89.777   6.23000000e+02 
89.741   5.39000000e+02 
89.705   5.98000000e+02 
89.670   5.91000000e+02 
89.634   6.00000000e+02 
89.598   5.65000000e+02 
89.562   5.71000000e+02 
89.526   5.98000000e+02 
89.490   5.20000000e+02 
89.454   5.69000000e+02 
89.418   5.26000000e+02 

