EXPERIMENT FILE
Version = 2

[ Experiment Parameters ]
Experiment Description= <none> 
Number_of_Regions_in_Experiment= 1 

Original_File_name= C:\alexesca\data\0201Theta20.xps 
Instrument= HP ESCA West
Date= 02-01-2013
Time=  14:30:48

[ Layer Parameters ]
Layer_Type= XPS

[ Region 1 Parameters ]
Region_Description = Au 4f Dithered 94eV Center 9.2eV Width
BEcenter(eV) = 94.000000
BEwidth(eV) = 9.200000
BEstep(eV) = 0.035937
Dwell_Time(sec) = 1.000000
N_o_scans = 1  
N_o_Channels = 256  
Scan_mode = 0  (DITHERED)

[ L= 1 R= 1 ]
BEcenter= 94.000  
BEwidth= -9.164  
Excitation= 1486.600
Time_p_channel= 256.000 
Size= 256
98.582   1.53400000e+03 
98.546   1.50000000e+03 
98.510   1.54100000e+03 
98.474   1.54900000e+03 
98.438   1.53100000e+03 
98.402   1.50700000e+03 
98.366   1.53300000e+03 
98.330   1.58000000e+03 
98.295   1.58400000e+03 
98.259   1.62300000e+03 
98.223   1.52500000e+03 
98.187   1.56100000e+03 
98.151   1.57700000e+03 
98.115   1.60100000e+03 
98.079   1.64200000e+03 
98.043   1.52900000e+03 
98.007   1.60300000e+03 
97.971   1.56500000e+03 
97.935   1.65700000e+03 
97.899   1.64200000e+03 
97.863   1.61200000e+03 
97.827   1.73500000e+03 
97.791   1.60800000e+03 
97.755   1.64900000e+03 
97.720   1.65800000e+03 
97.684   1.70800000e+03 
97.648   1.77000000e+03 
97.612   1.75900000e+03 
97.576   1.77800000e+03 
97.540   1.89000000e+03 
97.504   1.90100000e+03 
97.468   1.89500000e+03 
97.432   2.01400000e+03 
97.396   1.92900000e+03 
97.360   2.07300000e+03 
97.324   2.13000000e+03 
97.288   2.20500000e+03 
97.252   2.18400000e+03 
97.216   2.21600000e+03 
97.180   2.35400000e+03 
97.145   2.29500000e+03 
97.109   2.47500000e+03 
97.073   2.53400000e+03 
97.037   2.64000000e+03 
97.001   2.75200000e+03 
96.965   2.89900000e+03 
96.929   2.92400000e+03 
96.893   3.04000000e+03 
96.857   3.17400000e+03 
96.821   3.28600000e+03 
96.785   3.43400000e+03 
96.749   3.71800000e+03 
96.713   3.73500000e+03 
96.677   3.82400000e+03 
96.641   4.05100000e+03 
96.605   4.20800000e+03 
96.570   4.51700000e+03 
96.534   4.56500000e+03 
96.498   4.81800000e+03 
96.462   4.91900000e+03 
96.426   5.20700000e+03 
96.390   5.41700000e+03 
96.354   5.61600000e+03 
96.318   5.76200000e+03 
96.282   5.92500000e+03 
96.246   6.08500000e+03 
96.210   6.29500000e+03 
96.174   6.54100000e+03 
96.138   6.63300000e+03 
96.102   6.80200000e+03 
96.066   6.96700000e+03 
96.030   7.28300000e+03 
95.995   7.50900000e+03 
95.959   7.56100000e+03 
95.923   7.66800000e+03 
95.887   7.98200000e+03 
95.851   7.91500000e+03 
95.815   8.09200000e+03 
95.779   8.13100000e+03 
95.743   8.18800000e+03 
95.707   8.28800000e+03 
95.671   8.23600000e+03 
95.635   8.05800000e+03 
95.599   8.01200000e+03 
95.563   7.97700000e+03 
95.527   8.02500000e+03 
95.491   7.76600000e+03 
95.455   7.42100000e+03 
95.420   7.49800000e+03 
95.384   7.28700000e+03 
95.348   7.01100000e+03 
95.312   6.93300000e+03 
95.276   6.49100000e+03 
95.240   6.24000000e+03 
95.204   6.01700000e+03 
95.168   5.85600000e+03 
95.132   5.54200000e+03 
95.096   5.26600000e+03 
95.060   5.01700000e+03 
95.024   4.67800000e+03 
94.988   4.47500000e+03 
94.952   4.15000000e+03 
94.916   4.01500000e+03 
94.880   3.69300000e+03 
94.845   3.48300000e+03 
94.809   3.24400000e+03 
94.773   3.09800000e+03 
94.737   2.88200000e+03 
94.701   2.72500000e+03 
94.665   2.57900000e+03 
94.629   2.48200000e+03 
94.593   2.40700000e+03 
94.557   2.22100000e+03 
94.521   2.16200000e+03 
94.485   2.08700000e+03 
94.449   2.06600000e+03 
94.413   1.97700000e+03 
94.377   1.87900000e+03 
94.341   1.94000000e+03 
94.305   1.91900000e+03 
94.270   1.81500000e+03 
94.234   1.75200000e+03 
94.198   1.77500000e+03 
94.162   1.76200000e+03 
94.126   1.73700000e+03 
94.090   1.68400000e+03 
94.054   1.70800000e+03 
94.018   1.75300000e+03 
93.982   1.74500000e+03 
93.946   1.81100000e+03 
93.910   1.78900000e+03 
93.874   1.86900000e+03 
93.838   1.86600000e+03 
93.802   1.85700000e+03 
93.766   1.92100000e+03 
93.730   1.98300000e+03 
93.695   2.09200000e+03 
93.659   2.04100000e+03 
93.623   2.10800000e+03 
93.587   2.20600000e+03 
93.551   2.24800000e+03 
93.515   2.31900000e+03 
93.479   2.45100000e+03 
93.443   2.53800000e+03 
93.407   2.52400000e+03 
93.371   2.80500000e+03 
93.335   2.86100000e+03 
93.299   2.98500000e+03 
93.263   3.07300000e+03 
93.227   3.26800000e+03 
93.191   3.35300000e+03 
93.155   3.54600000e+03 
93.120   3.76000000e+03 
93.084   3.81700000e+03 
93.048   4.10200000e+03 
93.012   4.28500000e+03 
92.976   4.40000000e+03 
92.940   4.66600000e+03 
92.904   4.87900000e+03 
92.868   5.05400000e+03 
92.832   5.20100000e+03 
92.796   5.62100000e+03 
92.760   5.86100000e+03 
92.724   6.09500000e+03 
92.688   6.28500000e+03 
92.652   6.51000000e+03 
92.616   7.00500000e+03 
92.580   7.22300000e+03 
92.545   7.41300000e+03 
92.509   7.78100000e+03 
92.473   7.90200000e+03 
92.437   8.16500000e+03 
92.401   8.41700000e+03 
92.365   8.58200000e+03 
92.329   8.84500000e+03 
92.293   9.01000000e+03 
92.257   9.07600000e+03 
92.221   9.25200000e+03 
92.185   9.31800000e+03 
92.149   9.69200000e+03 
92.113   9.61800000e+03 
92.077   9.64900000e+03 
92.041   9.89500000e+03 
92.005   9.70700000e+03 
91.970   9.77000000e+03 
91.934   9.74400000e+03 
91.898   9.67600000e+03 
91.862   9.43100000e+03 
91.826   9.37500000e+03 
91.790   9.12300000e+03 
91.754   9.09900000e+03 
91.718   8.75900000e+03 
91.682   8.46200000e+03 
91.646   8.08700000e+03 
91.610   7.98800000e+03 
91.574   7.43500000e+03 
91.538   7.27300000e+03 
91.502   7.01200000e+03 
91.466   6.54100000e+03 
91.430   6.16300000e+03 
91.395   5.72100000e+03 
91.359   5.29400000e+03 
91.323   4.98500000e+03 
91.287   4.64500000e+03 
91.251   4.42100000e+03 
91.215   3.99100000e+03 
91.179   3.61100000e+03 
91.143   3.24700000e+03 
91.107   3.07400000e+03 
91.071   2.78000000e+03 
91.035   2.54200000e+03 
90.999   2.30300000e+03 
90.963   2.16700000e+03 
90.927   1.92700000e+03 
90.891   1.87200000e+03 
90.855   1.72400000e+03 
90.820   1.65000000e+03 
90.784   1.52400000e+03 
90.748   1.26500000e+03 
90.712   1.34800000e+03 
90.676   1.21500000e+03 
90.640   1.19200000e+03 
90.604   1.20500000e+03 
90.568   1.13400000e+03 
90.532   1.07800000e+03 
90.496   1.00500000e+03 
90.460   9.46000000e+02 
90.424   9.83000000e+02 
90.388   8.74000000e+02 
90.352   9.04000000e+02 
90.316   8.66000000e+02 
90.280   9.11000000e+02 
90.245   8.16000000e+02 
90.209   8.11000000e+02 
90.173   8.50000000e+02 
90.137   8.18000000e+02 
90.101   8.06000000e+02 
90.065   7.60000000e+02 
90.029   7.50000000e+02 
89.993   7.45000000e+02 
89.957   7.85000000e+02 
89.921   7.33000000e+02 
89.885   6.95000000e+02 
89.849   6.76000000e+02 
89.813   7.28000000e+02 
89.777   7.18000000e+02 
89.741   7.45000000e+02 
89.705   6.78000000e+02 
89.670   6.79000000e+02 
89.634   6.72000000e+02 
89.598   6.51000000e+02 
89.562   6.59000000e+02 
89.526   6.80000000e+02 
89.490   6.14000000e+02 
89.454   6.53000000e+02 
89.418   6.50000000e+02 

