EXPERIMENT FILE
Version = 2

[ Experiment Parameters ]
Experiment Description= <none> 
Number_of_Regions_in_Experiment= 1 

Original_File_name= C:\alexesca\data\0201Theta15.xps 
Instrument= HP ESCA West
Date= 02-01-2013
Time=  14:20:20

[ Layer Parameters ]
Layer_Type= XPS

[ Region 1 Parameters ]
Region_Description = Au 4f Dithered 94eV Center 9.2eV Width
BEcenter(eV) = 94.000000
BEwidth(eV) = 9.200000
BEstep(eV) = 0.035937
Dwell_Time(sec) = 1.000000
N_o_scans = 1  
N_o_Channels = 256  
Scan_mode = 0  (DITHERED)

[ L= 1 R= 1 ]
BEcenter= 94.000  
BEwidth= -9.164  
Excitation= 1486.600
Time_p_channel= 256.000 
Size= 256
98.582   1.23900000e+03 
98.546   1.32900000e+03 
98.510   1.42300000e+03 
98.474   1.35200000e+03 
98.438   1.35700000e+03 
98.402   1.42300000e+03 
98.366   1.35400000e+03 
98.330   1.39300000e+03 
98.295   1.44800000e+03 
98.259   1.30700000e+03 
98.223   1.40600000e+03 
98.187   1.37400000e+03 
98.151   1.42200000e+03 
98.115   1.45700000e+03 
98.079   1.42400000e+03 
98.043   1.46000000e+03 
98.007   1.45100000e+03 
97.971   1.40300000e+03 
97.935   1.47800000e+03 
97.899   1.41900000e+03 
97.863   1.51400000e+03 
97.827   1.49100000e+03 
97.791   1.52700000e+03 
97.755   1.59600000e+03 
97.720   1.55500000e+03 
97.684   1.48000000e+03 
97.648   1.61000000e+03 
97.612   1.59300000e+03 
97.576   1.61300000e+03 
97.540   1.64300000e+03 
97.504   1.72600000e+03 
97.468   1.72800000e+03 
97.432   1.80300000e+03 
97.396   1.73900000e+03 
97.360   1.80000000e+03 
97.324   1.82900000e+03 
97.288   1.78200000e+03 
97.252   1.90700000e+03 
97.216   2.00200000e+03 
97.180   2.04500000e+03 
97.145   2.08200000e+03 
97.109   2.18400000e+03 
97.073   2.19300000e+03 
97.037   2.44600000e+03 
97.001   2.39300000e+03 
96.965   2.38700000e+03 
96.929   2.60100000e+03 
96.893   2.59000000e+03 
96.857   2.85600000e+03 
96.821   2.95600000e+03 
96.785   3.08600000e+03 
96.749   3.17600000e+03 
96.713   3.34300000e+03 
96.677   3.50700000e+03 
96.641   3.63100000e+03 
96.605   3.70400000e+03 
96.570   3.89800000e+03 
96.534   4.09300000e+03 
96.498   4.19400000e+03 
96.462   4.37600000e+03 
96.426   4.52800000e+03 
96.390   4.88300000e+03 
96.354   5.10300000e+03 
96.318   5.29800000e+03 
96.282   5.37900000e+03 
96.246   5.44900000e+03 
96.210   5.71400000e+03 
96.174   5.87800000e+03 
96.138   6.06400000e+03 
96.102   6.40900000e+03 
96.066   6.58500000e+03 
96.030   6.76300000e+03 
95.995   6.85900000e+03 
95.959   7.17800000e+03 
95.923   7.35200000e+03 
95.887   7.35800000e+03 
95.851   7.47500000e+03 
95.815   7.39300000e+03 
95.779   7.67000000e+03 
95.743   7.62700000e+03 
95.707   7.69600000e+03 
95.671   7.77300000e+03 
95.635   7.66000000e+03 
95.599   7.53500000e+03 
95.563   7.32600000e+03 
95.527   7.29900000e+03 
95.491   7.12800000e+03 
95.455   7.05000000e+03 
95.420   6.74100000e+03 
95.384   6.36900000e+03 
95.348   6.39400000e+03 
95.312   6.03000000e+03 
95.276   5.77400000e+03 
95.240   5.42700000e+03 
95.204   5.20300000e+03 
95.168   4.85800000e+03 
95.132   4.64600000e+03 
95.096   4.35600000e+03 
95.060   4.12800000e+03 
95.024   3.81200000e+03 
94.988   3.47700000e+03 
94.952   3.39300000e+03 
94.916   3.18400000e+03 
94.880   2.87600000e+03 
94.845   2.83000000e+03 
94.809   2.56600000e+03 
94.773   2.37900000e+03 
94.737   2.32800000e+03 
94.701   2.22000000e+03 
94.665   2.10000000e+03 
94.629   2.03600000e+03 
94.593   1.88200000e+03 
94.557   1.90200000e+03 
94.521   1.76900000e+03 
94.485   1.73000000e+03 
94.449   1.74700000e+03 
94.413   1.67100000e+03 
94.377   1.64600000e+03 
94.341   1.60400000e+03 
94.305   1.59400000e+03 
94.270   1.58000000e+03 
94.234   1.60800000e+03 
94.198   1.55600000e+03 
94.162   1.53900000e+03 
94.126   1.58500000e+03 
94.090   1.55600000e+03 
94.054   1.58600000e+03 
94.018   1.52500000e+03 
93.982   1.57500000e+03 
93.946   1.46900000e+03 
93.910   1.58700000e+03 
93.874   1.59800000e+03 
93.838   1.72800000e+03 
93.802   1.66400000e+03 
93.766   1.65700000e+03 
93.730   1.74600000e+03 
93.695   1.75100000e+03 
93.659   1.81700000e+03 
93.623   1.81500000e+03 
93.587   1.95600000e+03 
93.551   1.89600000e+03 
93.515   2.03300000e+03 
93.479   2.09000000e+03 
93.443   2.03500000e+03 
93.407   2.22700000e+03 
93.371   2.33700000e+03 
93.335   2.36900000e+03 
93.299   2.53200000e+03 
93.263   2.57200000e+03 
93.227   2.84700000e+03 
93.191   2.88000000e+03 
93.155   3.11100000e+03 
93.120   3.07700000e+03 
93.084   3.37400000e+03 
93.048   3.59900000e+03 
93.012   3.71200000e+03 
92.976   3.81800000e+03 
92.940   4.03800000e+03 
92.904   4.20800000e+03 
92.868   4.47800000e+03 
92.832   4.55900000e+03 
92.796   4.91700000e+03 
92.760   4.99500000e+03 
92.724   5.36300000e+03 
92.688   5.69700000e+03 
92.652   5.87600000e+03 
92.616   6.29800000e+03 
92.580   6.40900000e+03 
92.545   6.60800000e+03 
92.509   6.94500000e+03 
92.473   7.01900000e+03 
92.437   7.52300000e+03 
92.401   7.64100000e+03 
92.365   8.19100000e+03 
92.329   8.30200000e+03 
92.293   8.44100000e+03 
92.257   8.77500000e+03 
92.221   8.82800000e+03 
92.185   8.95500000e+03 
92.149   9.14500000e+03 
92.113   9.15100000e+03 
92.077   9.18000000e+03 
92.041   9.26700000e+03 
92.005   9.21800000e+03 
91.970   9.15900000e+03 
91.934   8.99100000e+03 
91.898   9.08500000e+03 
91.862   8.94600000e+03 
91.826   8.68600000e+03 
91.790   8.41400000e+03 
91.754   8.17700000e+03 
91.718   7.88100000e+03 
91.682   7.61200000e+03 
91.646   7.19500000e+03 
91.610   6.95700000e+03 
91.574   6.55100000e+03 
91.538   6.06200000e+03 
91.502   5.76000000e+03 
91.466   5.48300000e+03 
91.430   5.12000000e+03 
91.395   4.75000000e+03 
91.359   4.29100000e+03 
91.323   4.09400000e+03 
91.287   3.64000000e+03 
91.251   3.24500000e+03 
91.215   2.97900000e+03 
91.179   2.82500000e+03 
91.143   2.51300000e+03 
91.107   2.35500000e+03 
91.071   2.18400000e+03 
91.035   1.96900000e+03 
90.999   1.89500000e+03 
90.963   1.68800000e+03 
90.927   1.61400000e+03 
90.891   1.45000000e+03 
90.855   1.45300000e+03 
90.820   1.27700000e+03 
90.784   1.19800000e+03 
90.748   1.14900000e+03 
90.712   1.19900000e+03 
90.676   1.03400000e+03 
90.640   1.06400000e+03 
90.604   9.80000000e+02 
90.568   9.80000000e+02 
90.532   8.92000000e+02 
90.496   8.73000000e+02 
90.460   8.88000000e+02 
90.424   8.23000000e+02 
90.388   8.10000000e+02 
90.352   7.82000000e+02 
90.316   7.67000000e+02 
90.280   7.31000000e+02 
90.245   7.58000000e+02 
90.209   7.22000000e+02 
90.173   7.31000000e+02 
90.137   7.43000000e+02 
90.101   7.35000000e+02 
90.065   7.52000000e+02 
90.029   7.21000000e+02 
89.993   6.86000000e+02 
89.957   6.67000000e+02 
89.921   6.62000000e+02 
89.885   6.29000000e+02 
89.849   6.06000000e+02 
89.813   6.30000000e+02 
89.777   6.06000000e+02 
89.741   6.09000000e+02 
89.705   6.10000000e+02 
89.670   6.02000000e+02 
89.634   5.79000000e+02 
89.598   5.69000000e+02 
89.562   6.24000000e+02 
89.526   5.69000000e+02 
89.490   5.91000000e+02 
89.454   5.80000000e+02 
89.418   5.74000000e+02 

