EXPERIMENT FILE
Version = 2

[ Experiment Parameters ]
Experiment Description= <none> 
Number_of_Regions_in_Experiment= 1 

Original_File_name= C:\alexesca\data\0201Theta0check.xps 
Instrument= HP ESCA West
Date= 02-01-2013
Time=  14:10:14

[ Layer Parameters ]
Layer_Type= XPS

[ Region 1 Parameters ]
Region_Description = Au 4f Dithered 94eV Center 9.2eV Width
BEcenter(eV) = 94.000000
BEwidth(eV) = 9.200000
BEstep(eV) = 0.035937
Dwell_Time(sec) = 1.000000
N_o_scans = 1  
N_o_Channels = 256  
Scan_mode = 0  (DITHERED)

[ L= 1 R= 1 ]
BEcenter= 94.000  
BEwidth= -9.164  
Excitation= 1486.600
Time_p_channel= 256.000 
Size= 256
98.582   8.99000000e+02 
98.546   9.32000000e+02 
98.510   9.55000000e+02 
98.474   9.50000000e+02 
98.438   8.98000000e+02 
98.402   9.60000000e+02 
98.366   9.72000000e+02 
98.330   9.31000000e+02 
98.295   8.89000000e+02 
98.259   1.01700000e+03 
98.223   9.56000000e+02 
98.187   9.88000000e+02 
98.151   9.48000000e+02 
98.115   1.01000000e+03 
98.079   9.51000000e+02 
98.043   9.58000000e+02 
98.007   9.23000000e+02 
97.971   9.62000000e+02 
97.935   9.83000000e+02 
97.899   9.96000000e+02 
97.863   9.93000000e+02 
97.827   9.61000000e+02 
97.791   1.00800000e+03 
97.755   9.98000000e+02 
97.720   1.01100000e+03 
97.684   1.03900000e+03 
97.648   9.61000000e+02 
97.612   1.04800000e+03 
97.576   9.83000000e+02 
97.540   1.05700000e+03 
97.504   1.07300000e+03 
97.468   1.05900000e+03 
97.432   1.19800000e+03 
97.396   1.12900000e+03 
97.360   1.07300000e+03 
97.324   1.13800000e+03 
97.288   1.15000000e+03 
97.252   1.25900000e+03 
97.216   1.20500000e+03 
97.180   1.30500000e+03 
97.145   1.36400000e+03 
97.109   1.30000000e+03 
97.073   1.35900000e+03 
97.037   1.39000000e+03 
97.001   1.48500000e+03 
96.965   1.56300000e+03 
96.929   1.57300000e+03 
96.893   1.66500000e+03 
96.857   1.77900000e+03 
96.821   1.73800000e+03 
96.785   1.83700000e+03 
96.749   1.94100000e+03 
96.713   2.03300000e+03 
96.677   2.15700000e+03 
96.641   2.18600000e+03 
96.605   2.28800000e+03 
96.570   2.41900000e+03 
96.534   2.63900000e+03 
96.498   2.59800000e+03 
96.462   2.73200000e+03 
96.426   2.90100000e+03 
96.390   2.96400000e+03 
96.354   3.13400000e+03 
96.318   3.35400000e+03 
96.282   3.58000000e+03 
96.246   3.61700000e+03 
96.210   3.92800000e+03 
96.174   4.03700000e+03 
96.138   4.39800000e+03 
96.102   4.50200000e+03 
96.066   4.52800000e+03 
96.030   4.85400000e+03 
95.995   4.96900000e+03 
95.959   5.05600000e+03 
95.923   5.16900000e+03 
95.887   5.29600000e+03 
95.851   5.52000000e+03 
95.815   5.58700000e+03 
95.779   5.49800000e+03 
95.743   5.65200000e+03 
95.707   5.60700000e+03 
95.671   5.53000000e+03 
95.635   5.35600000e+03 
95.599   5.34200000e+03 
95.563   5.33100000e+03 
95.527   5.23100000e+03 
95.491   4.82900000e+03 
95.455   4.62500000e+03 
95.420   4.41900000e+03 
95.384   4.15000000e+03 
95.348   3.92400000e+03 
95.312   3.71100000e+03 
95.276   3.51100000e+03 
95.240   3.17100000e+03 
95.204   2.98900000e+03 
95.168   2.72700000e+03 
95.132   2.59400000e+03 
95.096   2.37400000e+03 
95.060   2.21200000e+03 
95.024   1.96300000e+03 
94.988   1.90900000e+03 
94.952   1.83900000e+03 
94.916   1.67700000e+03 
94.880   1.59900000e+03 
94.845   1.49200000e+03 
94.809   1.42900000e+03 
94.773   1.32400000e+03 
94.737   1.29000000e+03 
94.701   1.28400000e+03 
94.665   1.27300000e+03 
94.629   1.17200000e+03 
94.593   1.12700000e+03 
94.557   1.10800000e+03 
94.521   1.06600000e+03 
94.485   1.01800000e+03 
94.449   1.03100000e+03 
94.413   9.70000000e+02 
94.377   1.01300000e+03 
94.341   1.00800000e+03 
94.305   1.00200000e+03 
94.270   1.01600000e+03 
94.234   9.98000000e+02 
94.198   9.95000000e+02 
94.162   1.04200000e+03 
94.126   9.73000000e+02 
94.090   1.00000000e+03 
94.054   9.89000000e+02 
94.018   1.00000000e+03 
93.982   9.58000000e+02 
93.946   9.64000000e+02 
93.910   9.91000000e+02 
93.874   1.03900000e+03 
93.838   9.79000000e+02 
93.802   9.91000000e+02 
93.766   1.01700000e+03 
93.730   1.04300000e+03 
93.695   1.05700000e+03 
93.659   1.11900000e+03 
93.623   1.10200000e+03 
93.587   1.18500000e+03 
93.551   1.17000000e+03 
93.515   1.25000000e+03 
93.479   1.26500000e+03 
93.443   1.40000000e+03 
93.407   1.33700000e+03 
93.371   1.37500000e+03 
93.335   1.41800000e+03 
93.299   1.53400000e+03 
93.263   1.55200000e+03 
93.227   1.62600000e+03 
93.191   1.72100000e+03 
93.155   1.74600000e+03 
93.120   1.89400000e+03 
93.084   1.99600000e+03 
93.048   2.10100000e+03 
93.012   2.14300000e+03 
92.976   2.31000000e+03 
92.940   2.39900000e+03 
92.904   2.47500000e+03 
92.868   2.71900000e+03 
92.832   2.75400000e+03 
92.796   2.93700000e+03 
92.760   3.22200000e+03 
92.724   3.47900000e+03 
92.688   3.64700000e+03 
92.652   3.78200000e+03 
92.616   3.88100000e+03 
92.580   4.19500000e+03 
92.545   4.36700000e+03 
92.509   4.47100000e+03 
92.473   4.96400000e+03 
92.437   5.03000000e+03 
92.401   5.32700000e+03 
92.365   5.67200000e+03 
92.329   5.75300000e+03 
92.293   5.92800000e+03 
92.257   6.01700000e+03 
92.221   6.25800000e+03 
92.185   6.43000000e+03 
92.149   6.58800000e+03 
92.113   6.72000000e+03 
92.077   6.80900000e+03 
92.041   6.82900000e+03 
92.005   6.76000000e+03 
91.970   6.80700000e+03 
91.934   6.65800000e+03 
91.898   6.57200000e+03 
91.862   6.30600000e+03 
91.826   5.93200000e+03 
91.790   5.92100000e+03 
91.754   5.51000000e+03 
91.718   5.16000000e+03 
91.682   4.94200000e+03 
91.646   4.48300000e+03 
91.610   4.18100000e+03 
91.574   3.79400000e+03 
91.538   3.45100000e+03 
91.502   3.24400000e+03 
91.466   2.92300000e+03 
91.430   2.67700000e+03 
91.395   2.50700000e+03 
91.359   2.19000000e+03 
91.323   2.04000000e+03 
91.287   1.89400000e+03 
91.251   1.68100000e+03 
91.215   1.50000000e+03 
91.179   1.41600000e+03 
91.143   1.29500000e+03 
91.107   1.25000000e+03 
91.071   1.11700000e+03 
91.035   1.09500000e+03 
90.999   9.69000000e+02 
90.963   9.15000000e+02 
90.927   8.64000000e+02 
90.891   8.01000000e+02 
90.855   8.29000000e+02 
90.820   7.26000000e+02 
90.784   6.96000000e+02 
90.748   6.66000000e+02 
90.712   6.56000000e+02 
90.676   6.39000000e+02 
90.640   6.43000000e+02 
90.604   5.96000000e+02 
90.568   5.55000000e+02 
90.532   5.93000000e+02 
90.496   6.02000000e+02 
90.460   5.51000000e+02 
90.424   5.87000000e+02 
90.388   5.34000000e+02 
90.352   5.09000000e+02 
90.316   5.52000000e+02 
90.280   5.37000000e+02 
90.245   4.77000000e+02 
90.209   5.06000000e+02 
90.173   4.78000000e+02 
90.137   4.74000000e+02 
90.101   4.57000000e+02 
90.065   4.62000000e+02 
90.029   4.46000000e+02 
89.993   4.58000000e+02 
89.957   4.36000000e+02 
89.921   4.66000000e+02 
89.885   4.57000000e+02 
89.849   4.20000000e+02 
89.813   4.10000000e+02 
89.777   4.12000000e+02 
89.741   4.26000000e+02 
89.705   4.16000000e+02 
89.670   4.14000000e+02 
89.634   4.46000000e+02 
89.598   4.20000000e+02 
89.562   3.91000000e+02 
89.526   3.96000000e+02 
89.490   3.84000000e+02 
89.454   4.13000000e+02 
89.418   3.91000000e+02 

