EXPERIMENT FILE
Version = 2

[ Experiment Parameters ]
Experiment Description= <none> 
Number_of_Regions_in_Experiment= 1 

Original_File_name= C:\alexesca\data\0201Theta5.xps 
Instrument= HP ESCA West
Date= 02-01-2013
Time=  13:50:28

[ Layer Parameters ]
Layer_Type= XPS

[ Region 1 Parameters ]
Region_Description = Au 4f Dithered 94eV Center 9.2eV Width
BEcenter(eV) = 94.000000
BEwidth(eV) = 9.200000
BEstep(eV) = 0.035937
Dwell_Time(sec) = 1.000000
N_o_scans = 1  
N_o_Channels = 256  
Scan_mode = 0  (DITHERED)

[ L= 1 R= 1 ]
BEcenter= 94.000  
BEwidth= -9.164  
Excitation= 1486.600
Time_p_channel= 256.000 
Size= 256
98.582   1.08300000e+03 
98.546   1.07400000e+03 
98.510   1.09400000e+03 
98.474   1.10000000e+03 
98.438   1.08900000e+03 
98.402   1.11400000e+03 
98.366   1.01800000e+03 
98.330   1.05900000e+03 
98.295   1.01300000e+03 
98.259   1.03900000e+03 
98.223   1.08700000e+03 
98.187   1.10600000e+03 
98.151   1.18400000e+03 
98.115   1.09300000e+03 
98.079   1.20000000e+03 
98.043   1.14200000e+03 
98.007   1.12300000e+03 
97.971   1.07100000e+03 
97.935   1.12500000e+03 
97.899   1.16600000e+03 
97.863   1.17400000e+03 
97.827   1.12700000e+03 
97.791   1.13600000e+03 
97.755   1.18600000e+03 
97.720   1.11900000e+03 
97.684   1.17300000e+03 
97.648   1.22900000e+03 
97.612   1.21900000e+03 
97.576   1.20600000e+03 
97.540   1.24200000e+03 
97.504   1.25100000e+03 
97.468   1.26100000e+03 
97.432   1.26300000e+03 
97.396   1.34300000e+03 
97.360   1.32600000e+03 
97.324   1.37000000e+03 
97.288   1.39900000e+03 
97.252   1.38900000e+03 
97.216   1.42900000e+03 
97.180   1.46600000e+03 
97.145   1.51800000e+03 
97.109   1.52900000e+03 
97.073   1.58700000e+03 
97.037   1.67400000e+03 
97.001   1.69900000e+03 
96.965   1.70600000e+03 
96.929   1.80300000e+03 
96.893   1.82800000e+03 
96.857   1.88800000e+03 
96.821   2.03900000e+03 
96.785   2.05400000e+03 
96.749   2.15500000e+03 
96.713   2.15100000e+03 
96.677   2.29500000e+03 
96.641   2.41300000e+03 
96.605   2.69700000e+03 
96.570   2.64700000e+03 
96.534   2.76100000e+03 
96.498   2.87500000e+03 
96.462   2.97800000e+03 
96.426   3.13500000e+03 
96.390   3.39400000e+03 
96.354   3.51600000e+03 
96.318   3.64000000e+03 
96.282   3.69500000e+03 
96.246   3.85900000e+03 
96.210   3.99100000e+03 
96.174   4.32400000e+03 
96.138   4.38400000e+03 
96.102   4.69800000e+03 
96.066   4.85000000e+03 
96.030   5.00900000e+03 
95.995   5.20100000e+03 
95.959   5.38200000e+03 
95.923   5.50700000e+03 
95.887   5.78900000e+03 
95.851   5.82600000e+03 
95.815   6.06700000e+03 
95.779   6.23200000e+03 
95.743   6.12900000e+03 
95.707   6.24100000e+03 
95.671   6.35000000e+03 
95.635   6.39000000e+03 
95.599   6.45100000e+03 
95.563   6.27400000e+03 
95.527   6.20600000e+03 
95.491   6.15900000e+03 
95.455   5.94600000e+03 
95.420   5.98800000e+03 
95.384   5.52600000e+03 
95.348   5.46700000e+03 
95.312   5.22800000e+03 
95.276   5.00800000e+03 
95.240   4.53300000e+03 
95.204   4.28200000e+03 
95.168   3.93400000e+03 
95.132   3.70600000e+03 
95.096   3.43400000e+03 
95.060   3.25700000e+03 
95.024   3.13200000e+03 
94.988   2.75200000e+03 
94.952   2.59500000e+03 
94.916   2.32000000e+03 
94.880   2.35800000e+03 
94.845   2.11700000e+03 
94.809   1.94100000e+03 
94.773   1.79600000e+03 
94.737   1.79300000e+03 
94.701   1.64100000e+03 
94.665   1.59400000e+03 
94.629   1.53200000e+03 
94.593   1.44700000e+03 
94.557   1.36700000e+03 
94.521   1.36600000e+03 
94.485   1.30400000e+03 
94.449   1.34200000e+03 
94.413   1.27100000e+03 
94.377   1.26700000e+03 
94.341   1.24800000e+03 
94.305   1.25200000e+03 
94.270   1.17100000e+03 
94.234   1.22000000e+03 
94.198   1.18800000e+03 
94.162   1.20000000e+03 
94.126   1.13400000e+03 
94.090   1.20500000e+03 
94.054   1.15400000e+03 
94.018   1.20100000e+03 
93.982   1.16500000e+03 
93.946   1.19900000e+03 
93.910   1.24000000e+03 
93.874   1.21200000e+03 
93.838   1.23100000e+03 
93.802   1.22500000e+03 
93.766   1.26000000e+03 
93.730   1.30100000e+03 
93.695   1.28300000e+03 
93.659   1.33200000e+03 
93.623   1.43100000e+03 
93.587   1.41500000e+03 
93.551   1.42800000e+03 
93.515   1.50500000e+03 
93.479   1.56200000e+03 
93.443   1.69900000e+03 
93.407   1.61200000e+03 
93.371   1.77400000e+03 
93.335   1.81900000e+03 
93.299   1.86500000e+03 
93.263   1.92000000e+03 
93.227   2.02200000e+03 
93.191   2.23900000e+03 
93.155   2.21200000e+03 
93.120   2.31800000e+03 
93.084   2.38300000e+03 
93.048   2.50600000e+03 
93.012   2.65000000e+03 
92.976   2.85200000e+03 
92.940   2.85900000e+03 
92.904   3.11700000e+03 
92.868   3.24300000e+03 
92.832   3.34100000e+03 
92.796   3.54800000e+03 
92.760   3.67800000e+03 
92.724   4.00800000e+03 
92.688   4.15300000e+03 
92.652   4.28500000e+03 
92.616   4.54000000e+03 
92.580   4.75800000e+03 
92.545   5.15800000e+03 
92.509   5.20700000e+03 
92.473   5.33800000e+03 
92.437   5.77400000e+03 
92.401   5.98600000e+03 
92.365   6.34300000e+03 
92.329   6.43600000e+03 
92.293   6.61600000e+03 
92.257   6.92500000e+03 
92.221   6.89100000e+03 
92.185   7.34700000e+03 
92.149   7.37500000e+03 
92.113   7.42400000e+03 
92.077   7.51000000e+03 
92.041   7.59900000e+03 
92.005   7.62700000e+03 
91.970   7.47700000e+03 
91.934   7.43700000e+03 
91.898   7.42300000e+03 
91.862   7.13300000e+03 
91.826   7.14700000e+03 
91.790   7.04100000e+03 
91.754   6.65300000e+03 
91.718   6.24000000e+03 
91.682   5.81900000e+03 
91.646   5.50200000e+03 
91.610   5.40000000e+03 
91.574   4.92600000e+03 
91.538   4.43100000e+03 
91.502   4.21100000e+03 
91.466   3.81900000e+03 
91.430   3.44500000e+03 
91.395   3.13900000e+03 
91.359   2.92000000e+03 
91.323   2.61300000e+03 
91.287   2.38300000e+03 
91.251   2.17700000e+03 
91.215   2.03000000e+03 
91.179   1.66500000e+03 
91.143   1.66700000e+03 
91.107   1.52600000e+03 
91.071   1.35300000e+03 
91.035   1.34600000e+03 
90.999   1.18600000e+03 
90.963   1.17000000e+03 
90.927   1.05700000e+03 
90.891   1.05200000e+03 
90.855   9.18000000e+02 
90.820   8.83000000e+02 
90.784   8.39000000e+02 
90.748   7.96000000e+02 
90.712   7.88000000e+02 
90.676   8.33000000e+02 
90.640   7.55000000e+02 
90.604   6.89000000e+02 
90.568   6.42000000e+02 
90.532   6.75000000e+02 
90.496   6.66000000e+02 
90.460   6.75000000e+02 
90.424   6.29000000e+02 
90.388   5.96000000e+02 
90.352   6.01000000e+02 
90.316   5.53000000e+02 
90.280   6.21000000e+02 
90.245   5.73000000e+02 
90.209   5.98000000e+02 
90.173   5.90000000e+02 
90.137   5.68000000e+02 
90.101   5.39000000e+02 
90.065   5.14000000e+02 
90.029   5.68000000e+02 
89.993   5.41000000e+02 
89.957   5.60000000e+02 
89.921   5.04000000e+02 
89.885   5.21000000e+02 
89.849   5.11000000e+02 
89.813   5.33000000e+02 
89.777   5.22000000e+02 
89.741   4.98000000e+02 
89.705   5.08000000e+02 
89.670   5.00000000e+02 
89.634   4.86000000e+02 
89.598   4.74000000e+02 
89.562   4.88000000e+02 
89.526   4.74000000e+02 
89.490   4.65000000e+02 
89.454   4.60000000e+02 
89.418   4.57000000e+02 

