EXPERIMENT FILE
Version = 2

[ Experiment Parameters ]
Experiment Description= <none> 
Number_of_Regions_in_Experiment= 1 

Original_File_name= C:\alexesca\data\0201Theta25.xps 
Instrument= HP ESCA West
Date= 02-01-2013
Time=  14:40:15

[ Layer Parameters ]
Layer_Type= XPS

[ Region 1 Parameters ]
Region_Description = Au 4f Dithered 94eV Center 9.2eV Width
BEcenter(eV) = 94.000000
BEwidth(eV) = 9.200000
BEstep(eV) = 0.035937
Dwell_Time(sec) = 1.000000
N_o_scans = 1  
N_o_Channels = 256  
Scan_mode = 0  (DITHERED)

[ L= 1 R= 1 ]
BEcenter= 94.000  
BEwidth= -9.164  
Excitation= 1486.600
Time_p_channel= 256.000 
Size= 256
98.582   1.62600000e+03 
98.546   1.60400000e+03 
98.510   1.63000000e+03 
98.474   1.60600000e+03 
98.438   1.66000000e+03 
98.402   1.57400000e+03 
98.366   1.61700000e+03 
98.330   1.69300000e+03 
98.295   1.68300000e+03 
98.259   1.69700000e+03 
98.223   1.66000000e+03 
98.187   1.67800000e+03 
98.151   1.71800000e+03 
98.115   1.67900000e+03 
98.079   1.75100000e+03 
98.043   1.67200000e+03 
98.007   1.69700000e+03 
97.971   1.82800000e+03 
97.935   1.79100000e+03 
97.899   1.79900000e+03 
97.863   1.79200000e+03 
97.827   1.79500000e+03 
97.791   1.78200000e+03 
97.755   1.82700000e+03 
97.720   1.82100000e+03 
97.684   1.97700000e+03 
97.648   1.93000000e+03 
97.612   1.93900000e+03 
97.576   2.00800000e+03 
97.540   2.02900000e+03 
97.504   2.06800000e+03 
97.468   2.06500000e+03 
97.432   2.11800000e+03 
97.396   2.14100000e+03 
97.360   2.26600000e+03 
97.324   2.26000000e+03 
97.288   2.33200000e+03 
97.252   2.43700000e+03 
97.216   2.54700000e+03 
97.180   2.57400000e+03 
97.145   2.62300000e+03 
97.109   2.69700000e+03 
97.073   2.81800000e+03 
97.037   2.92300000e+03 
97.001   3.16600000e+03 
96.965   3.14900000e+03 
96.929   3.27600000e+03 
96.893   3.39600000e+03 
96.857   3.53800000e+03 
96.821   3.59600000e+03 
96.785   3.73100000e+03 
96.749   4.04400000e+03 
96.713   4.13000000e+03 
96.677   4.10800000e+03 
96.641   4.50900000e+03 
96.605   4.76800000e+03 
96.570   4.85400000e+03 
96.534   5.07100000e+03 
96.498   5.33300000e+03 
96.462   5.33300000e+03 
96.426   5.54100000e+03 
96.390   5.80700000e+03 
96.354   6.14700000e+03 
96.318   6.12100000e+03 
96.282   6.36400000e+03 
96.246   6.74900000e+03 
96.210   6.87200000e+03 
96.174   7.01300000e+03 
96.138   7.19200000e+03 
96.102   7.41100000e+03 
96.066   7.35500000e+03 
96.030   7.74100000e+03 
95.995   7.94600000e+03 
95.959   7.88600000e+03 
95.923   8.09900000e+03 
95.887   8.16400000e+03 
95.851   8.30600000e+03 
95.815   8.18800000e+03 
95.779   8.29500000e+03 
95.743   8.52300000e+03 
95.707   8.38700000e+03 
95.671   8.39900000e+03 
95.635   8.35300000e+03 
95.599   8.55600000e+03 
95.563   8.22600000e+03 
95.527   8.27900000e+03 
95.491   8.20000000e+03 
95.455   8.02700000e+03 
95.420   7.88000000e+03 
95.384   7.74600000e+03 
95.348   7.62500000e+03 
95.312   7.54400000e+03 
95.276   7.22500000e+03 
95.240   6.99700000e+03 
95.204   6.67000000e+03 
95.168   6.43600000e+03 
95.132   6.27700000e+03 
95.096   5.93200000e+03 
95.060   5.79800000e+03 
95.024   5.44300000e+03 
94.988   5.20100000e+03 
94.952   4.85300000e+03 
94.916   4.54100000e+03 
94.880   4.26100000e+03 
94.845   4.09500000e+03 
94.809   3.82700000e+03 
94.773   3.60700000e+03 
94.737   3.34000000e+03 
94.701   3.20400000e+03 
94.665   2.94800000e+03 
94.629   2.89500000e+03 
94.593   2.67200000e+03 
94.557   2.54200000e+03 
94.521   2.50700000e+03 
94.485   2.45700000e+03 
94.449   2.35600000e+03 
94.413   2.16000000e+03 
94.377   2.17900000e+03 
94.341   2.10200000e+03 
94.305   1.95100000e+03 
94.270   2.02800000e+03 
94.234   1.87400000e+03 
94.198   1.92100000e+03 
94.162   1.94700000e+03 
94.126   1.95800000e+03 
94.090   1.91100000e+03 
94.054   1.92800000e+03 
94.018   1.92900000e+03 
93.982   1.98500000e+03 
93.946   1.91700000e+03 
93.910   1.95200000e+03 
93.874   1.97200000e+03 
93.838   2.04600000e+03 
93.802   2.05000000e+03 
93.766   2.11600000e+03 
93.730   2.12100000e+03 
93.695   2.24600000e+03 
93.659   2.32600000e+03 
93.623   2.33700000e+03 
93.587   2.33800000e+03 
93.551   2.52000000e+03 
93.515   2.60800000e+03 
93.479   2.73900000e+03 
93.443   2.82000000e+03 
93.407   2.89400000e+03 
93.371   3.03500000e+03 
93.335   3.15500000e+03 
93.299   3.25200000e+03 
93.263   3.43500000e+03 
93.227   3.45400000e+03 
93.191   3.72700000e+03 
93.155   3.86500000e+03 
93.120   4.12800000e+03 
93.084   4.10300000e+03 
93.048   4.47200000e+03 
93.012   4.65600000e+03 
92.976   4.70800000e+03 
92.940   5.16500000e+03 
92.904   5.33100000e+03 
92.868   5.48000000e+03 
92.832   5.80400000e+03 
92.796   6.07400000e+03 
92.760   6.46000000e+03 
92.724   6.71700000e+03 
92.688   6.99900000e+03 
92.652   7.10100000e+03 
92.616   7.42400000e+03 
92.580   7.71200000e+03 
92.545   7.89900000e+03 
92.509   8.07400000e+03 
92.473   8.36300000e+03 
92.437   8.67200000e+03 
92.401   8.73900000e+03 
92.365   9.11000000e+03 
92.329   9.22200000e+03 
92.293   9.31900000e+03 
92.257   9.50600000e+03 
92.221   9.64100000e+03 
92.185   9.79200000e+03 
92.149   9.93800000e+03 
92.113   1.00440000e+04 
92.077   1.00540000e+04 
92.041   1.02580000e+04 
92.005   1.02080000e+04 
91.970   1.02160000e+04 
91.934   1.00030000e+04 
91.898   9.94800000e+03 
91.862   9.88800000e+03 
91.826   9.85600000e+03 
91.790   9.72300000e+03 
91.754   9.58600000e+03 
91.718   9.27600000e+03 
91.682   9.09500000e+03 
91.646   9.10600000e+03 
91.610   8.47200000e+03 
91.574   8.28600000e+03 
91.538   8.00800000e+03 
91.502   7.72800000e+03 
91.466   7.24700000e+03 
91.430   6.94200000e+03 
91.395   6.54500000e+03 
91.359   6.40700000e+03 
91.323   5.95000000e+03 
91.287   5.49000000e+03 
91.251   4.98700000e+03 
91.215   4.80400000e+03 
91.179   4.40400000e+03 
91.143   4.13400000e+03 
91.107   3.68600000e+03 
91.071   3.38600000e+03 
91.035   3.11300000e+03 
90.999   2.87500000e+03 
90.963   2.69000000e+03 
90.927   2.43900000e+03 
90.891   2.23400000e+03 
90.855   2.08600000e+03 
90.820   1.92000000e+03 
90.784   1.87700000e+03 
90.748   1.66700000e+03 
90.712   1.57300000e+03 
90.676   1.47800000e+03 
90.640   1.37400000e+03 
90.604   1.34900000e+03 
90.568   1.27600000e+03 
90.532   1.27400000e+03 
90.496   1.20300000e+03 
90.460   1.15900000e+03 
90.424   1.07800000e+03 
90.388   1.05100000e+03 
90.352   1.02500000e+03 
90.316   9.63000000e+02 
90.280   1.01000000e+03 
90.245   9.36000000e+02 
90.209   9.06000000e+02 
90.173   8.60000000e+02 
90.137   9.01000000e+02 
90.101   8.86000000e+02 
90.065   8.86000000e+02 
90.029   8.82000000e+02 
89.993   8.16000000e+02 
89.957   8.51000000e+02 
89.921   8.11000000e+02 
89.885   7.98000000e+02 
89.849   7.96000000e+02 
89.813   7.43000000e+02 
89.777   7.76000000e+02 
89.741   7.23000000e+02 
89.705   7.51000000e+02 
89.670   7.57000000e+02 
89.634   7.52000000e+02 
89.598   7.35000000e+02 
89.562   7.21000000e+02 
89.526   7.21000000e+02 
89.490   7.02000000e+02 
89.454   6.80000000e+02 
89.418   6.86000000e+02 

