EXPERIMENT FILE
Version = 2

[ Experiment Parameters ]
Experiment Description= <none> 
Number_of_Regions_in_Experiment= 1 

Original_File_name= C:\alexesca\data\0402Au4f.xps 
Instrument= HP ESCA West
Date= 04-02-2013
Time=  12:03:31

[ Layer Parameters ]
Layer_Type= XPS

[ Region 1 Parameters ]
Region_Description = Au 4f Dithered 92eV Center 10eV Width
BEcenter(eV) = 92.000000
BEwidth(eV) = 10.000000
BEstep(eV) = 0.035937
Dwell_Time(sec) = 1.000000
N_o_scans = 1  
N_o_Channels = 278  
Scan_mode = 0  (DITHERED)

[ L= 1 R= 1 ]
BEcenter= 92.000  
BEwidth= -9.955  
Excitation= 1486.600
Time_p_channel= 256.000 
Size= 278
96.977   8.68000000e+02 
96.941   8.90000000e+02 
96.905   8.31000000e+02 
96.870   8.84000000e+02 
96.834   8.85000000e+02 
96.798   9.02000000e+02 
96.762   8.80000000e+02 
96.726   8.75000000e+02 
96.690   9.64000000e+02 
96.654   9.76000000e+02 
96.618   9.89000000e+02 
96.582   1.04300000e+03 
96.546   1.01000000e+03 
96.510   1.04400000e+03 
96.474   1.04500000e+03 
96.438   1.05700000e+03 
96.402   1.11800000e+03 
96.366   1.13400000e+03 
96.330   1.17500000e+03 
96.295   1.26700000e+03 
96.259   1.17800000e+03 
96.223   1.28600000e+03 
96.187   1.28000000e+03 
96.151   1.32200000e+03 
96.115   1.37800000e+03 
96.079   1.43700000e+03 
96.043   1.48200000e+03 
96.007   1.53000000e+03 
95.971   1.54100000e+03 
95.935   1.54900000e+03 
95.899   1.67500000e+03 
95.863   1.75000000e+03 
95.827   1.78400000e+03 
95.791   1.85000000e+03 
95.755   1.93300000e+03 
95.720   1.94700000e+03 
95.684   2.16200000e+03 
95.648   2.09200000e+03 
95.612   2.15000000e+03 
95.576   2.23500000e+03 
95.540   2.34700000e+03 
95.504   2.48000000e+03 
95.468   2.47000000e+03 
95.432   2.52300000e+03 
95.396   2.74900000e+03 
95.360   2.73700000e+03 
95.324   2.80800000e+03 
95.288   2.93800000e+03 
95.252   3.08800000e+03 
95.216   3.22000000e+03 
95.180   3.35500000e+03 
95.145   3.21800000e+03 
95.109   3.49600000e+03 
95.073   3.57800000e+03 
95.037   3.73600000e+03 
95.001   3.64900000e+03 
94.965   3.83300000e+03 
94.929   3.94100000e+03 
94.893   3.99800000e+03 
94.857   3.95000000e+03 
94.821   4.13700000e+03 
94.785   4.08000000e+03 
94.749   3.95800000e+03 
94.713   3.95400000e+03 
94.677   3.89700000e+03 
94.641   3.92200000e+03 
94.605   3.95000000e+03 
94.570   3.84700000e+03 
94.534   3.72200000e+03 
94.498   3.39300000e+03 
94.462   3.23800000e+03 
94.426   2.98300000e+03 
94.390   2.94700000e+03 
94.354   2.73700000e+03 
94.318   2.48500000e+03 
94.282   2.26900000e+03 
94.246   2.09400000e+03 
94.210   2.01300000e+03 
94.174   1.83000000e+03 
94.138   1.60900000e+03 
94.102   1.51400000e+03 
94.066   1.42500000e+03 
94.030   1.33200000e+03 
93.995   1.29400000e+03 
93.959   1.16700000e+03 
93.923   1.15000000e+03 
93.887   1.03400000e+03 
93.851   1.04100000e+03 
93.815   1.07000000e+03 
93.779   9.02000000e+02 
93.743   9.47000000e+02 
93.707   9.20000000e+02 
93.671   9.12000000e+02 
93.635   9.21000000e+02 
93.599   8.65000000e+02 
93.563   8.95000000e+02 
93.527   8.76000000e+02 
93.491   8.70000000e+02 
93.455   8.26000000e+02 
93.420   8.75000000e+02 
93.384   8.68000000e+02 
93.348   8.65000000e+02 
93.312   8.75000000e+02 
93.276   8.96000000e+02 
93.240   8.90000000e+02 
93.204   8.80000000e+02 
93.168   9.24000000e+02 
93.132   8.37000000e+02 
93.096   8.57000000e+02 
93.060   9.12000000e+02 
93.024   8.80000000e+02 
92.988   9.40000000e+02 
92.952   9.40000000e+02 
92.916   9.59000000e+02 
92.880   1.04300000e+03 
92.845   9.97000000e+02 
92.809   1.08900000e+03 
92.773   1.11100000e+03 
92.737   1.10000000e+03 
92.701   1.11500000e+03 
92.665   1.15300000e+03 
92.629   1.27600000e+03 
92.593   1.29400000e+03 
92.557   1.28000000e+03 
92.521   1.36700000e+03 
92.485   1.46300000e+03 
92.449   1.47500000e+03 
92.413   1.55500000e+03 
92.377   1.62000000e+03 
92.341   1.65900000e+03 
92.305   1.69500000e+03 
92.270   1.77400000e+03 
92.234   1.81200000e+03 
92.198   1.81300000e+03 
92.162   1.92900000e+03 
92.126   1.99200000e+03 
92.090   2.12200000e+03 
92.054   2.14000000e+03 
92.018   2.20000000e+03 
91.982   2.32500000e+03 
91.946   2.42600000e+03 
91.910   2.49900000e+03 
91.874   2.51900000e+03 
91.838   2.82000000e+03 
91.802   2.87500000e+03 
91.766   3.00300000e+03 
91.730   3.08400000e+03 
91.695   3.18700000e+03 
91.659   3.34700000e+03 
91.623   3.44400000e+03 
91.587   3.64500000e+03 
91.551   3.88900000e+03 
91.515   3.93200000e+03 
91.479   4.02200000e+03 
91.443   4.18700000e+03 
91.407   4.33600000e+03 
91.371   4.43300000e+03 
91.335   4.50500000e+03 
91.299   4.63700000e+03 
91.263   4.80600000e+03 
91.227   4.84500000e+03 
91.191   4.75300000e+03 
91.155   4.85500000e+03 
91.120   4.88800000e+03 
91.084   4.90000000e+03 
91.048   4.91300000e+03 
91.012   4.82400000e+03 
90.976   4.83500000e+03 
90.940   4.71200000e+03 
90.904   4.56200000e+03 
90.868   4.36300000e+03 
90.832   4.13400000e+03 
90.796   3.95100000e+03 
90.760   3.60000000e+03 
90.724   3.40500000e+03 
90.688   2.95800000e+03 
90.652   2.81900000e+03 
90.616   2.50800000e+03 
90.580   2.35600000e+03 
90.545   2.13000000e+03 
90.509   1.88400000e+03 
90.473   1.65100000e+03 
90.437   1.59400000e+03 
90.401   1.33200000e+03 
90.365   1.30600000e+03 
90.329   1.09300000e+03 
90.293   1.03100000e+03 
90.257   9.89000000e+02 
90.221   8.30000000e+02 
90.185   8.02000000e+02 
90.149   7.59000000e+02 
90.113   7.35000000e+02 
90.077   6.90000000e+02 
90.041   6.85000000e+02 
90.005   6.36000000e+02 
89.970   6.06000000e+02 
89.934   6.04000000e+02 
89.898   5.83000000e+02 
89.862   5.42000000e+02 
89.826   5.38000000e+02 
89.790   5.24000000e+02 
89.754   4.82000000e+02 
89.718   4.85000000e+02 
89.682   4.84000000e+02 
89.646   4.66000000e+02 
89.610   4.42000000e+02 
89.574   4.59000000e+02 
89.538   4.61000000e+02 
89.502   4.18000000e+02 
89.466   4.28000000e+02 
89.430   3.96000000e+02 
89.395   4.03000000e+02 
89.359   3.79000000e+02 
89.323   4.25000000e+02 
89.287   3.77000000e+02 
89.251   3.64000000e+02 
89.215   3.53000000e+02 
89.179   4.08000000e+02 
89.143   3.67000000e+02 
89.107   3.91000000e+02 
89.071   3.54000000e+02 
89.035   3.59000000e+02 
88.999   3.65000000e+02 
88.963   3.77000000e+02 
88.927   3.63000000e+02 
88.891   3.38000000e+02 
88.855   3.48000000e+02 
88.820   3.24000000e+02 
88.784   3.22000000e+02 
88.748   3.61000000e+02 
88.712   3.08000000e+02 
88.676   3.36000000e+02 
88.640   2.96000000e+02 
88.604   3.31000000e+02 
88.568   3.59000000e+02 
88.532   3.19000000e+02 
88.496   3.43000000e+02 
88.460   3.32000000e+02 
88.424   3.41000000e+02 
88.388   3.39000000e+02 
88.352   3.38000000e+02 
88.316   3.21000000e+02 
88.280   3.48000000e+02 
88.245   3.04000000e+02 
88.209   2.90000000e+02 
88.173   2.91000000e+02 
88.137   2.87000000e+02 
88.101   3.06000000e+02 
88.065   3.10000000e+02 
88.029   3.14000000e+02 
87.993   3.02000000e+02 
87.957   3.07000000e+02 
87.921   3.20000000e+02 
87.885   3.36000000e+02 
87.849   2.82000000e+02 
87.813   3.25000000e+02 
87.777   2.88000000e+02 
87.741   3.23000000e+02 
87.705   2.86000000e+02 
87.670   3.09000000e+02 
87.634   3.16000000e+02 
87.598   2.63000000e+02 
87.562   2.94000000e+02 
87.526   2.91000000e+02 
87.490   2.91000000e+02 
87.454   2.88000000e+02 
87.418   2.78000000e+02 
87.382   2.90000000e+02 
87.346   2.88000000e+02 
87.310   2.81000000e+02 
87.274   3.00000000e+02 
87.238   2.85000000e+02 
87.202   2.95000000e+02 
87.166   2.75000000e+02 
87.130   3.20000000e+02 
87.095   3.12000000e+02 
87.059   3.00000000e+02 
87.023   2.90000000e+02 

