EXPERIMENT FILE
Version = 2

[ Experiment Parameters ]
Experiment Description= <none> 
Number_of_Regions_in_Experiment= 1 

Original_File_name= C:\alexesca\data\0418Au4fAng0.xps 
Instrument= HP ESCA West
Date= 04-18-2013
Time=  14:45:53

[ Layer Parameters ]
Layer_Type= XPS

[ Region 1 Parameters ]
Region_Description = Au 4f Dithered 92eV Center 10eV Width
BEcenter(eV) = 92.000000
BEwidth(eV) = 10.000000
BEstep(eV) = 0.035938
Dwell_Time(sec) = 1.000000
N_o_scans = 1  
N_o_Channels = 278  
Scan_mode = 0  (DITHERED)

[ L= 1 R= 1 ]
BEcenter= 92.000  
BEwidth= -9.955  
Excitation= 1486.600
Time_p_channel= 256.000 
Size= 278
96.977   9.75000000e+02 
96.941   9.33000000e+02 
96.905   1.09100000e+03 
96.870   9.98000000e+02 
96.834   1.07000000e+03 
96.798   1.04400000e+03 
96.762   1.12200000e+03 
96.726   1.08600000e+03 
96.690   1.07800000e+03 
96.654   1.15200000e+03 
96.618   1.13600000e+03 
96.582   1.16500000e+03 
96.546   1.17000000e+03 
96.510   1.20600000e+03 
96.474   1.21400000e+03 
96.438   1.24300000e+03 
96.402   1.29800000e+03 
96.366   1.28300000e+03 
96.330   1.37900000e+03 
96.295   1.36300000e+03 
96.259   1.39100000e+03 
96.223   1.49700000e+03 
96.187   1.52000000e+03 
96.151   1.58000000e+03 
96.115   1.68100000e+03 
96.079   1.70500000e+03 
96.043   1.79900000e+03 
96.007   1.69600000e+03 
95.971   1.82200000e+03 
95.935   1.89500000e+03 
95.899   1.97300000e+03 
95.863   2.00200000e+03 
95.827   2.11500000e+03 
95.791   2.12100000e+03 
95.755   2.24700000e+03 
95.720   2.30100000e+03 
95.684   2.31900000e+03 
95.648   2.42700000e+03 
95.612   2.49000000e+03 
95.576   2.61200000e+03 
95.540   2.69800000e+03 
95.504   2.72000000e+03 
95.468   2.92100000e+03 
95.432   2.94600000e+03 
95.396   3.03800000e+03 
95.360   3.18900000e+03 
95.324   3.28700000e+03 
95.288   3.34700000e+03 
95.252   3.48100000e+03 
95.216   3.69100000e+03 
95.180   3.66000000e+03 
95.145   3.76000000e+03 
95.109   3.84800000e+03 
95.073   4.01200000e+03 
95.037   4.21100000e+03 
95.001   4.22800000e+03 
94.965   4.32400000e+03 
94.929   4.33400000e+03 
94.893   4.53700000e+03 
94.857   4.54100000e+03 
94.821   4.48200000e+03 
94.785   4.56700000e+03 
94.749   4.67500000e+03 
94.713   4.71300000e+03 
94.677   4.79900000e+03 
94.641   4.59100000e+03 
94.605   4.51800000e+03 
94.570   4.51700000e+03 
94.534   4.34500000e+03 
94.498   4.12200000e+03 
94.462   4.07200000e+03 
94.426   3.87700000e+03 
94.390   3.64700000e+03 
94.354   3.50700000e+03 
94.318   3.35400000e+03 
94.282   3.05300000e+03 
94.246   2.82700000e+03 
94.210   2.65600000e+03 
94.174   2.35100000e+03 
94.138   2.32700000e+03 
94.102   2.10400000e+03 
94.066   1.88700000e+03 
94.030   1.75500000e+03 
93.995   1.64300000e+03 
93.959   1.54500000e+03 
93.923   1.45900000e+03 
93.887   1.36400000e+03 
93.851   1.37100000e+03 
93.815   1.21200000e+03 
93.779   1.18200000e+03 
93.743   1.18800000e+03 
93.707   1.18800000e+03 
93.671   1.09100000e+03 
93.635   1.08300000e+03 
93.599   1.04600000e+03 
93.563   9.99000000e+02 
93.527   1.06700000e+03 
93.491   1.03300000e+03 
93.455   9.79000000e+02 
93.420   1.01800000e+03 
93.384   1.00500000e+03 
93.348   1.02500000e+03 
93.312   1.01400000e+03 
93.276   1.03200000e+03 
93.240   9.84000000e+02 
93.204   1.01700000e+03 
93.168   1.04000000e+03 
93.132   1.14400000e+03 
93.096   1.02100000e+03 
93.060   1.09300000e+03 
93.024   1.12600000e+03 
92.988   1.10700000e+03 
92.952   1.12700000e+03 
92.916   1.14800000e+03 
92.880   1.17200000e+03 
92.845   1.24900000e+03 
92.809   1.22200000e+03 
92.773   1.27400000e+03 
92.737   1.31700000e+03 
92.701   1.32700000e+03 
92.665   1.46000000e+03 
92.629   1.47100000e+03 
92.593   1.44000000e+03 
92.557   1.50100000e+03 
92.521   1.63400000e+03 
92.485   1.57000000e+03 
92.449   1.62300000e+03 
92.413   1.73800000e+03 
92.377   1.82000000e+03 
92.341   1.83900000e+03 
92.305   1.96100000e+03 
92.270   1.96100000e+03 
92.234   2.12200000e+03 
92.198   2.12600000e+03 
92.162   2.26500000e+03 
92.126   2.33500000e+03 
92.090   2.42700000e+03 
92.054   2.42800000e+03 
92.018   2.71500000e+03 
91.982   2.75500000e+03 
91.946   2.90800000e+03 
91.910   2.85200000e+03 
91.874   2.97100000e+03 
91.838   3.23700000e+03 
91.802   3.32300000e+03 
91.766   3.46200000e+03 
91.730   3.52900000e+03 
91.695   3.66200000e+03 
91.659   3.77400000e+03 
91.623   4.01700000e+03 
91.587   4.01800000e+03 
91.551   4.29400000e+03 
91.515   4.26100000e+03 
91.479   4.53100000e+03 
91.443   4.68500000e+03 
91.407   4.67400000e+03 
91.371   4.79500000e+03 
91.335   5.03100000e+03 
91.299   5.19100000e+03 
91.263   5.19800000e+03 
91.227   5.27200000e+03 
91.191   5.50300000e+03 
91.155   5.45900000e+03 
91.120   5.45700000e+03 
91.084   5.58700000e+03 
91.048   5.55100000e+03 
91.012   5.47400000e+03 
90.976   5.52100000e+03 
90.940   5.41500000e+03 
90.904   5.46500000e+03 
90.868   5.23600000e+03 
90.832   5.12400000e+03 
90.796   4.86300000e+03 
90.760   4.72600000e+03 
90.724   4.25600000e+03 
90.688   4.17800000e+03 
90.652   3.79700000e+03 
90.616   3.54900000e+03 
90.580   3.20000000e+03 
90.545   3.00900000e+03 
90.509   2.68500000e+03 
90.473   2.28400000e+03 
90.437   2.23200000e+03 
90.401   1.87600000e+03 
90.365   1.65500000e+03 
90.329   1.50300000e+03 
90.293   1.40200000e+03 
90.257   1.30200000e+03 
90.221   1.13400000e+03 
90.185   1.03500000e+03 
90.149   9.77000000e+02 
90.113   9.63000000e+02 
90.077   8.97000000e+02 
90.041   8.46000000e+02 
90.005   7.38000000e+02 
89.970   7.08000000e+02 
89.934   7.24000000e+02 
89.898   6.97000000e+02 
89.862   7.20000000e+02 
89.826   6.02000000e+02 
89.790   6.24000000e+02 
89.754   6.14000000e+02 
89.718   6.13000000e+02 
89.682   5.66000000e+02 
89.646   5.28000000e+02 
89.610   5.35000000e+02 
89.574   5.46000000e+02 
89.538   5.38000000e+02 
89.502   4.90000000e+02 
89.466   5.18000000e+02 
89.430   4.87000000e+02 
89.395   4.93000000e+02 
89.359   4.57000000e+02 
89.323   4.70000000e+02 
89.287   4.79000000e+02 
89.251   4.39000000e+02 
89.215   4.43000000e+02 
89.179   4.27000000e+02 
89.143   4.85000000e+02 
89.107   4.42000000e+02 
89.071   4.13000000e+02 
89.035   4.07000000e+02 
88.999   4.16000000e+02 
88.963   4.20000000e+02 
88.927   3.95000000e+02 
88.891   3.91000000e+02 
88.855   3.96000000e+02 
88.820   3.67000000e+02 
88.784   4.18000000e+02 
88.748   4.10000000e+02 
88.712   4.25000000e+02 
88.676   4.02000000e+02 
88.640   3.86000000e+02 
88.604   4.09000000e+02 
88.568   3.95000000e+02 
88.532   3.69000000e+02 
88.496   3.90000000e+02 
88.460   3.73000000e+02 
88.424   3.69000000e+02 
88.388   3.76000000e+02 
88.352   3.51000000e+02 
88.316   3.30000000e+02 
88.280   3.69000000e+02 
88.245   3.66000000e+02 
88.209   3.82000000e+02 
88.173   3.36000000e+02 
88.137   3.26000000e+02 
88.101   3.46000000e+02 
88.065   3.18000000e+02 
88.029   3.09000000e+02 
87.993   3.52000000e+02 
87.957   3.69000000e+02 
87.921   3.37000000e+02 
87.885   3.57000000e+02 
87.849   3.46000000e+02 
87.813   3.46000000e+02 
87.777   3.34000000e+02 
87.741   3.53000000e+02 
87.705   3.34000000e+02 
87.670   3.47000000e+02 
87.634   3.51000000e+02 
87.598   3.02000000e+02 
87.562   3.36000000e+02 
87.526   3.29000000e+02 
87.490   3.52000000e+02 
87.454   3.17000000e+02 
87.418   3.19000000e+02 
87.382   3.27000000e+02 
87.346   3.65000000e+02 
87.310   3.45000000e+02 
87.274   3.35000000e+02 
87.238   3.46000000e+02 
87.202   2.96000000e+02 
87.166   3.10000000e+02 
87.130   3.39000000e+02 
87.095   3.61000000e+02 
87.059   3.39000000e+02 
87.023   3.24000000e+02 

