EXPERIMENT FILE
Version = 2

[ Experiment Parameters ]
Experiment Description= <none> 
Number_of_Regions_in_Experiment= 1 

Original_File_name= C:\alexesca\data\0422Au4fAng0.xps 
Instrument= HP ESCA West
Date= 04-22-2013
Time=  14:57:01

[ Layer Parameters ]
Layer_Type= XPS

[ Region 1 Parameters ]
Region_Description = Au 4f Dithered 92eV Center 10eV Width
BEcenter(eV) = 92.000000
BEwidth(eV) = 10.000000
BEstep(eV) = 0.035937
Dwell_Time(sec) = 1.000000
N_o_scans = 1  
N_o_Channels = 278  
Scan_mode = 0  (DITHERED)

[ L= 1 R= 1 ]
BEcenter= 92.000  
BEwidth= -9.955  
Excitation= 1486.600
Time_p_channel= 256.000 
Size= 278
96.977   1.32400000e+03 
96.941   1.34400000e+03 
96.905   1.40000000e+03 
96.870   1.44900000e+03 
96.834   1.47200000e+03 
96.798   1.53600000e+03 
96.762   1.63700000e+03 
96.726   1.62300000e+03 
96.690   1.66500000e+03 
96.654   1.71200000e+03 
96.618   1.78400000e+03 
96.582   1.76900000e+03 
96.546   1.90800000e+03 
96.510   1.92200000e+03 
96.474   1.94100000e+03 
96.438   1.99300000e+03 
96.402   2.08900000e+03 
96.366   2.20500000e+03 
96.330   2.20900000e+03 
96.295   2.34500000e+03 
96.259   2.33200000e+03 
96.223   2.44400000e+03 
96.187   2.57000000e+03 
96.151   2.56900000e+03 
96.115   2.72100000e+03 
96.079   2.73100000e+03 
96.043   2.85000000e+03 
96.007   3.06000000e+03 
95.971   3.03400000e+03 
95.935   3.15600000e+03 
95.899   3.25100000e+03 
95.863   3.34500000e+03 
95.827   3.55100000e+03 
95.791   3.65900000e+03 
95.755   3.61100000e+03 
95.720   3.69200000e+03 
95.684   3.97700000e+03 
95.648   4.07400000e+03 
95.612   4.15500000e+03 
95.576   4.30600000e+03 
95.540   4.37000000e+03 
95.504   4.52500000e+03 
95.468   4.54200000e+03 
95.432   4.49200000e+03 
95.396   4.61900000e+03 
95.360   4.87800000e+03 
95.324   4.86400000e+03 
95.288   4.95300000e+03 
95.252   4.98700000e+03 
95.216   4.95000000e+03 
95.180   5.02300000e+03 
95.145   4.85900000e+03 
95.109   4.83900000e+03 
95.073   4.76100000e+03 
95.037   4.64700000e+03 
95.001   4.45300000e+03 
94.965   4.42600000e+03 
94.929   4.36600000e+03 
94.893   4.06000000e+03 
94.857   3.90000000e+03 
94.821   3.67800000e+03 
94.785   3.44100000e+03 
94.749   3.15300000e+03 
94.713   2.98000000e+03 
94.677   2.73900000e+03 
94.641   2.45700000e+03 
94.605   2.38300000e+03 
94.570   2.21700000e+03 
94.534   1.96300000e+03 
94.498   1.88400000e+03 
94.462   1.71700000e+03 
94.426   1.62000000e+03 
94.390   1.53200000e+03 
94.354   1.43800000e+03 
94.318   1.37600000e+03 
94.282   1.24600000e+03 
94.246   1.30000000e+03 
94.210   1.23900000e+03 
94.174   1.17600000e+03 
94.138   1.20600000e+03 
94.102   1.13900000e+03 
94.066   1.10700000e+03 
94.030   1.16000000e+03 
93.995   1.06700000e+03 
93.959   1.14000000e+03 
93.923   1.16400000e+03 
93.887   1.14900000e+03 
93.851   1.07000000e+03 
93.815   1.18900000e+03 
93.779   1.12200000e+03 
93.743   1.15200000e+03 
93.707   1.08400000e+03 
93.671   1.15200000e+03 
93.635   1.13200000e+03 
93.599   1.17800000e+03 
93.563   1.21700000e+03 
93.527   1.20600000e+03 
93.491   1.23500000e+03 
93.455   1.34700000e+03 
93.420   1.23600000e+03 
93.384   1.37700000e+03 
93.348   1.33300000e+03 
93.312   1.36200000e+03 
93.276   1.49600000e+03 
93.240   1.35200000e+03 
93.204   1.55800000e+03 
93.168   1.59400000e+03 
93.132   1.58400000e+03 
93.096   1.68700000e+03 
93.060   1.68100000e+03 
93.024   1.78300000e+03 
92.988   1.83700000e+03 
92.952   1.92600000e+03 
92.916   1.91200000e+03 
92.880   2.03300000e+03 
92.845   2.15300000e+03 
92.809   2.15200000e+03 
92.773   2.24300000e+03 
92.737   2.41800000e+03 
92.701   2.34100000e+03 
92.665   2.58300000e+03 
92.629   2.68700000e+03 
92.593   2.66900000e+03 
92.557   2.85900000e+03 
92.521   2.98300000e+03 
92.485   3.08200000e+03 
92.449   3.09100000e+03 
92.413   3.34900000e+03 
92.377   3.38500000e+03 
92.341   3.58200000e+03 
92.305   3.65800000e+03 
92.270   3.81600000e+03 
92.234   3.94700000e+03 
92.198   3.98300000e+03 
92.162   4.33400000e+03 
92.126   4.37800000e+03 
92.090   4.43300000e+03 
92.054   4.62100000e+03 
92.018   4.85300000e+03 
91.982   4.83400000e+03 
91.946   5.08100000e+03 
91.910   5.16000000e+03 
91.874   5.28500000e+03 
91.838   5.44600000e+03 
91.802   5.44100000e+03 
91.766   5.55800000e+03 
91.730   5.89600000e+03 
91.695   5.70900000e+03 
91.659   5.91800000e+03 
91.623   6.00800000e+03 
91.587   5.88200000e+03 
91.551   5.93200000e+03 
91.515   5.94100000e+03 
91.479   5.91800000e+03 
91.443   5.77800000e+03 
91.407   5.70600000e+03 
91.371   5.49300000e+03 
91.335   5.30200000e+03 
91.299   4.97500000e+03 
91.263   4.78800000e+03 
91.227   4.41100000e+03 
91.191   4.17200000e+03 
91.155   3.82500000e+03 
91.120   3.49000000e+03 
91.084   3.21300000e+03 
91.048   2.86100000e+03 
91.012   2.66300000e+03 
90.976   2.51100000e+03 
90.940   2.19200000e+03 
90.904   1.88200000e+03 
90.868   1.77800000e+03 
90.832   1.65100000e+03 
90.796   1.40800000e+03 
90.760   1.33300000e+03 
90.724   1.25800000e+03 
90.688   1.07400000e+03 
90.652   1.03500000e+03 
90.616   9.07000000e+02 
90.580   8.97000000e+02 
90.545   8.58000000e+02 
90.509   8.04000000e+02 
90.473   7.76000000e+02 
90.437   7.20000000e+02 
90.401   6.76000000e+02 
90.365   7.27000000e+02 
90.329   6.61000000e+02 
90.293   6.60000000e+02 
90.257   6.01000000e+02 
90.221   6.07000000e+02 
90.185   5.94000000e+02 
90.149   5.58000000e+02 
90.113   6.05000000e+02 
90.077   5.46000000e+02 
90.041   5.57000000e+02 
90.005   5.21000000e+02 
89.970   4.91000000e+02 
89.934   4.98000000e+02 
89.898   5.47000000e+02 
89.862   5.19000000e+02 
89.826   4.93000000e+02 
89.790   4.79000000e+02 
89.754   4.62000000e+02 
89.718   4.38000000e+02 
89.682   4.84000000e+02 
89.646   4.61000000e+02 
89.610   4.92000000e+02 
89.574   4.60000000e+02 
89.538   4.61000000e+02 
89.502   4.24000000e+02 
89.466   4.36000000e+02 
89.430   4.31000000e+02 
89.395   4.26000000e+02 
89.359   4.42000000e+02 
89.323   4.37000000e+02 
89.287   4.39000000e+02 
89.251   4.46000000e+02 
89.215   4.35000000e+02 
89.179   3.74000000e+02 
89.143   4.48000000e+02 
89.107   4.09000000e+02 
89.071   4.10000000e+02 
89.035   3.98000000e+02 
88.999   3.89000000e+02 
88.963   4.03000000e+02 
88.927   3.91000000e+02 
88.891   3.95000000e+02 
88.855   3.55000000e+02 
88.820   3.89000000e+02 
88.784   3.73000000e+02 
88.748   3.85000000e+02 
88.712   3.92000000e+02 
88.676   4.09000000e+02 
88.640   3.50000000e+02 
88.604   3.25000000e+02 
88.568   3.49000000e+02 
88.532   3.99000000e+02 
88.496   3.95000000e+02 
88.460   3.97000000e+02 
88.424   4.22000000e+02 
88.388   3.84000000e+02 
88.352   3.88000000e+02 
88.316   3.88000000e+02 
88.280   3.63000000e+02 
88.245   3.77000000e+02 
88.209   3.82000000e+02 
88.173   3.73000000e+02 
88.137   3.68000000e+02 
88.101   3.36000000e+02 
88.065   3.41000000e+02 
88.029   3.50000000e+02 
87.993   3.60000000e+02 
87.957   3.43000000e+02 
87.921   3.55000000e+02 
87.885   3.44000000e+02 
87.849   3.08000000e+02 
87.813   3.36000000e+02 
87.777   3.64000000e+02 
87.741   3.66000000e+02 
87.705   3.67000000e+02 
87.670   3.59000000e+02 
87.634   3.50000000e+02 
87.598   3.57000000e+02 
87.562   3.68000000e+02 
87.526   4.09000000e+02 
87.490   3.65000000e+02 
87.454   3.64000000e+02 
87.418   3.56000000e+02 
87.382   3.35000000e+02 
87.346   3.91000000e+02 
87.310   3.54000000e+02 
87.274   3.36000000e+02 
87.238   3.27000000e+02 
87.202   3.41000000e+02 
87.166   2.99000000e+02 
87.130   3.42000000e+02 
87.095   3.44000000e+02 
87.059   3.45000000e+02 
87.023   3.53000000e+02 

