EXPERIMENT FILE
Version = 2

[ Experiment Parameters ]
Experiment Description= <none> 
Number_of_Regions_in_Experiment= 1 

Original_File_name= C:\alexesca\data\0705test.xps 
Instrument= HP ESCA West
Date= 07-05-2012
Time=  15:09:20

[ Layer Parameters ]
Layer_Type= XPS

[ Region 1 Parameters ]
Region_Description = Au Dithered Scan Test              
BEcenter(eV) = 91.000000
BEwidth(eV) = 10.000000
BEstep(eV) = 0.035938
Dwell_Time(sec) = 1.000000
N_o_scans = 1  
N_o_Channels = 278  
Scan_mode = 0  (DITHERED)

[ L= 1 R= 1 ]
BEcenter= 91.000  
BEwidth= -9.955  
Excitation= 1486.600
Time_p_channel= 256.000 
Size= 278
95.977   3.42000000e+02 
95.941   3.51000000e+02 
95.905   3.57000000e+02 
95.870   3.90000000e+02 
95.834   3.98000000e+02 
95.798   3.63000000e+02 
95.762   3.91000000e+02 
95.726   3.95000000e+02 
95.690   3.60000000e+02 
95.654   3.75000000e+02 
95.618   3.82000000e+02 
95.582   3.75000000e+02 
95.546   3.90000000e+02 
95.510   3.80000000e+02 
95.474   3.89000000e+02 
95.438   3.90000000e+02 
95.402   4.37000000e+02 
95.366   4.07000000e+02 
95.330   4.21000000e+02 
95.295   3.98000000e+02 
95.259   4.17000000e+02 
95.223   4.24000000e+02 
95.187   4.15000000e+02 
95.151   4.28000000e+02 
95.115   4.48000000e+02 
95.079   4.39000000e+02 
95.043   4.31000000e+02 
95.007   4.51000000e+02 
94.971   4.97000000e+02 
94.935   5.16000000e+02 
94.899   5.23000000e+02 
94.863   5.31000000e+02 
94.827   5.34000000e+02 
94.791   5.39000000e+02 
94.755   5.18000000e+02 
94.720   5.57000000e+02 
94.684   5.91000000e+02 
94.648   6.25000000e+02 
94.612   6.26000000e+02 
94.576   6.71000000e+02 
94.540   6.42000000e+02 
94.504   7.05000000e+02 
94.468   7.63000000e+02 
94.432   7.51000000e+02 
94.396   7.88000000e+02 
94.360   8.08000000e+02 
94.324   9.03000000e+02 
94.288   8.36000000e+02 
94.252   9.70000000e+02 
94.216   9.78000000e+02 
94.180   1.00500000e+03 
94.145   1.06700000e+03 
94.109   1.09000000e+03 
94.073   1.11600000e+03 
94.037   1.16600000e+03 
94.001   1.28700000e+03 
93.965   1.25600000e+03 
93.929   1.35900000e+03 
93.893   1.46300000e+03 
93.857   1.45500000e+03 
93.821   1.52400000e+03 
93.785   1.64100000e+03 
93.749   1.66500000e+03 
93.713   1.77500000e+03 
93.677   1.86300000e+03 
93.641   1.90600000e+03 
93.605   1.93200000e+03 
93.570   1.91700000e+03 
93.534   2.14000000e+03 
93.498   2.08900000e+03 
93.462   2.18900000e+03 
93.426   2.14000000e+03 
93.390   2.19800000e+03 
93.354   2.27500000e+03 
93.318   2.22700000e+03 
93.282   2.19600000e+03 
93.246   2.02900000e+03 
93.210   2.05600000e+03 
93.174   1.95600000e+03 
93.138   1.85600000e+03 
93.102   1.77100000e+03 
93.066   1.73400000e+03 
93.030   1.52100000e+03 
92.995   1.47100000e+03 
92.959   1.30900000e+03 
92.923   1.17500000e+03 
92.887   1.11800000e+03 
92.851   9.31000000e+02 
92.815   9.31000000e+02 
92.779   8.53000000e+02 
92.743   7.87000000e+02 
92.707   6.89000000e+02 
92.671   6.62000000e+02 
92.635   6.06000000e+02 
92.599   6.17000000e+02 
92.563   5.63000000e+02 
92.527   5.42000000e+02 
92.491   5.20000000e+02 
92.455   4.56000000e+02 
92.420   4.87000000e+02 
92.384   4.78000000e+02 
92.348   4.20000000e+02 
92.312   4.19000000e+02 
92.276   3.88000000e+02 
92.240   4.39000000e+02 
92.204   4.17000000e+02 
92.168   3.93000000e+02 
92.132   3.95000000e+02 
92.096   4.20000000e+02 
92.060   4.00000000e+02 
92.024   3.86000000e+02 
91.988   3.95000000e+02 
91.952   3.74000000e+02 
91.916   3.95000000e+02 
91.880   3.58000000e+02 
91.845   3.57000000e+02 
91.809   3.98000000e+02 
91.773   3.88000000e+02 
91.737   3.77000000e+02 
91.701   3.49000000e+02 
91.665   3.81000000e+02 
91.629   3.80000000e+02 
91.593   3.86000000e+02 
91.557   4.01000000e+02 
91.521   4.07000000e+02 
91.485   4.13000000e+02 
91.449   4.53000000e+02 
91.413   4.31000000e+02 
91.377   4.55000000e+02 
91.341   4.33000000e+02 
91.305   4.38000000e+02 
91.270   4.61000000e+02 
91.234   4.67000000e+02 
91.198   5.24000000e+02 
91.162   5.28000000e+02 
91.126   4.87000000e+02 
91.090   5.88000000e+02 
91.054   5.48000000e+02 
91.018   5.36000000e+02 
90.982   6.26000000e+02 
90.946   6.18000000e+02 
90.910   6.80000000e+02 
90.874   6.56000000e+02 
90.838   6.99000000e+02 
90.802   7.41000000e+02 
90.766   7.67000000e+02 
90.730   7.39000000e+02 
90.695   8.43000000e+02 
90.659   8.97000000e+02 
90.623   9.44000000e+02 
90.587   1.01100000e+03 
90.551   9.84000000e+02 
90.515   1.02000000e+03 
90.479   1.07900000e+03 
90.443   1.13600000e+03 
90.407   1.26100000e+03 
90.371   1.27500000e+03 
90.335   1.39400000e+03 
90.299   1.42700000e+03 
90.263   1.53900000e+03 
90.227   1.59200000e+03 
90.191   1.68100000e+03 
90.155   1.73600000e+03 
90.120   1.90900000e+03 
90.084   1.89000000e+03 
90.048   2.01800000e+03 
90.012   2.06600000e+03 
89.976   2.25500000e+03 
89.940   2.24000000e+03 
89.904   2.34600000e+03 
89.868   2.43000000e+03 
89.832   2.51300000e+03 
89.796   2.58100000e+03 
89.760   2.58000000e+03 
89.724   2.65900000e+03 
89.688   2.75200000e+03 
89.652   2.64900000e+03 
89.616   2.76300000e+03 
89.580   2.71300000e+03 
89.545   2.57000000e+03 
89.509   2.49400000e+03 
89.473   2.30200000e+03 
89.437   2.26600000e+03 
89.401   2.05600000e+03 
89.365   1.87000000e+03 
89.329   1.79600000e+03 
89.293   1.63700000e+03 
89.257   1.46100000e+03 
89.221   1.32800000e+03 
89.185   1.11100000e+03 
89.149   1.00500000e+03 
89.113   9.40000000e+02 
89.077   7.96000000e+02 
89.041   7.34000000e+02 
89.005   7.15000000e+02 
88.970   6.16000000e+02 
88.934   5.93000000e+02 
88.898   4.89000000e+02 
88.862   4.35000000e+02 
88.826   3.83000000e+02 
88.790   3.80000000e+02 
88.754   3.55000000e+02 
88.718   3.56000000e+02 
88.682   3.14000000e+02 
88.646   2.95000000e+02 
88.610   2.83000000e+02 
88.574   2.88000000e+02 
88.538   2.85000000e+02 
88.502   2.50000000e+02 
88.466   2.47000000e+02 
88.430   2.54000000e+02 
88.395   1.94000000e+02 
88.359   2.06000000e+02 
88.323   2.03000000e+02 
88.287   1.98000000e+02 
88.251   1.96000000e+02 
88.215   2.04000000e+02 
88.179   2.05000000e+02 
88.143   1.95000000e+02 
88.107   1.62000000e+02 
88.071   1.87000000e+02 
88.035   1.47000000e+02 
87.999   1.81000000e+02 
87.963   1.63000000e+02 
87.927   1.83000000e+02 
87.891   1.62000000e+02 
87.855   1.56000000e+02 
87.820   1.80000000e+02 
87.784   1.53000000e+02 
87.748   1.65000000e+02 
87.712   1.31000000e+02 
87.676   1.62000000e+02 
87.640   1.32000000e+02 
87.604   1.50000000e+02 
87.568   1.40000000e+02 
87.532   1.40000000e+02 
87.496   1.32000000e+02 
87.460   1.44000000e+02 
87.424   1.31000000e+02 
87.388   1.31000000e+02 
87.352   1.21000000e+02 
87.316   1.32000000e+02 
87.280   1.35000000e+02 
87.245   1.27000000e+02 
87.209   1.42000000e+02 
87.173   1.35000000e+02 
87.137   1.24000000e+02 
87.101   1.24000000e+02 
87.065   1.20000000e+02 
87.029   1.46000000e+02 
86.993   1.26000000e+02 
86.957   1.04000000e+02 
86.921   1.12000000e+02 
86.885   1.23000000e+02 
86.849   1.34000000e+02 
86.813   1.30000000e+02 
86.777   1.14000000e+02 
86.741   1.05000000e+02 
86.705   1.02000000e+02 
86.670   1.16000000e+02 
86.634   1.21000000e+02 
86.598   1.08000000e+02 
86.562   1.16000000e+02 
86.526   1.30000000e+02 
86.490   1.28000000e+02 
86.454   1.04000000e+02 
86.418   1.21000000e+02 
86.382   1.07000000e+02 
86.346   1.21000000e+02 
86.310   1.15000000e+02 
86.274   1.21000000e+02 
86.238   1.29000000e+02 
86.202   1.06000000e+02 
86.166   1.12000000e+02 
86.130   1.12000000e+02 
86.095   1.11000000e+02 
86.059   1.00000000e+02 
86.023   1.25000000e+02 

