EXPERIMENT FILE
Version = 2

[ Experiment Parameters ]
Experiment Description= <none> 
Number_of_Regions_in_Experiment= 1 

Original_File_name= C:\alexesca\data\10172012_Au _4f_58nuetral+12.xps 
Instrument= HP ESCA West
Date= 10-17-2012
Time=  13:50:50

[ Layer Parameters ]
Layer_Type= XPS

[ Region 1 Parameters ]
Region_Description = Au 4f Dithered Scan                
BEcenter(eV) = 93.000000
BEwidth(eV) = 10.000000
BEstep(eV) = 0.035937
Dwell_Time(sec) = 1.000000
N_o_scans = 1  
N_o_Channels = 278  
Scan_mode = 0  (DITHERED)

[ L= 1 R= 1 ]
BEcenter= 93.000  
BEwidth= -9.955  
Excitation= 1486.600
Time_p_channel= 256.000 
Size= 278
97.977   4.25000000e+02 
97.941   4.82000000e+02 
97.905   4.76000000e+02 
97.870   4.66000000e+02 
97.834   4.49000000e+02 
97.798   4.59000000e+02 
97.762   4.63000000e+02 
97.726   4.26000000e+02 
97.690   4.69000000e+02 
97.654   4.79000000e+02 
97.618   4.43000000e+02 
97.582   4.11000000e+02 
97.546   4.15000000e+02 
97.510   4.84000000e+02 
97.474   4.76000000e+02 
97.438   4.84000000e+02 
97.402   4.72000000e+02 
97.366   4.89000000e+02 
97.330   4.70000000e+02 
97.295   4.70000000e+02 
97.259   4.96000000e+02 
97.223   5.32000000e+02 
97.187   4.91000000e+02 
97.151   4.93000000e+02 
97.115   4.76000000e+02 
97.079   5.31000000e+02 
97.043   5.35000000e+02 
97.007   5.27000000e+02 
96.971   5.32000000e+02 
96.935   5.76000000e+02 
96.899   5.43000000e+02 
96.863   5.63000000e+02 
96.827   5.90000000e+02 
96.791   5.86000000e+02 
96.755   6.37000000e+02 
96.720   6.50000000e+02 
96.684   6.52000000e+02 
96.648   6.75000000e+02 
96.612   6.72000000e+02 
96.576   7.28000000e+02 
96.540   7.20000000e+02 
96.504   7.16000000e+02 
96.468   7.25000000e+02 
96.432   7.74000000e+02 
96.396   7.66000000e+02 
96.360   7.95000000e+02 
96.324   8.47000000e+02 
96.288   8.46000000e+02 
96.252   8.87000000e+02 
96.216   8.45000000e+02 
96.180   8.98000000e+02 
96.145   9.11000000e+02 
96.109   9.54000000e+02 
96.073   9.56000000e+02 
96.037   1.00900000e+03 
96.001   1.09300000e+03 
95.965   1.04300000e+03 
95.929   1.07200000e+03 
95.893   1.08300000e+03 
95.857   1.15200000e+03 
95.821   1.21300000e+03 
95.785   1.20300000e+03 
95.749   1.27700000e+03 
95.713   1.25500000e+03 
95.677   1.31000000e+03 
95.641   1.33100000e+03 
95.605   1.38800000e+03 
95.570   1.41000000e+03 
95.534   1.44700000e+03 
95.498   1.52200000e+03 
95.462   1.53600000e+03 
95.426   1.58500000e+03 
95.390   1.59600000e+03 
95.354   1.67900000e+03 
95.318   1.68700000e+03 
95.282   1.69500000e+03 
95.246   1.79700000e+03 
95.210   1.81700000e+03 
95.174   1.86200000e+03 
95.138   2.00900000e+03 
95.102   1.93500000e+03 
95.066   1.94300000e+03 
95.030   2.04100000e+03 
94.995   2.09500000e+03 
94.959   2.08100000e+03 
94.923   2.07900000e+03 
94.887   2.15300000e+03 
94.851   2.15000000e+03 
94.815   2.17800000e+03 
94.779   2.12500000e+03 
94.743   2.17300000e+03 
94.707   2.17100000e+03 
94.671   2.19900000e+03 
94.635   2.16400000e+03 
94.599   2.16600000e+03 
94.563   2.15400000e+03 
94.527   1.97700000e+03 
94.491   2.00300000e+03 
94.455   1.99200000e+03 
94.420   1.93000000e+03 
94.384   1.82800000e+03 
94.348   1.72700000e+03 
94.312   1.62200000e+03 
94.276   1.59200000e+03 
94.240   1.41200000e+03 
94.204   1.44900000e+03 
94.168   1.24300000e+03 
94.132   1.27400000e+03 
94.096   1.13400000e+03 
94.060   1.05000000e+03 
94.024   1.03500000e+03 
93.988   9.20000000e+02 
93.952   8.66000000e+02 
93.916   8.73000000e+02 
93.880   7.40000000e+02 
93.845   7.21000000e+02 
93.809   7.29000000e+02 
93.773   6.68000000e+02 
93.737   6.13000000e+02 
93.701   6.23000000e+02 
93.665   6.38000000e+02 
93.629   6.11000000e+02 
93.593   5.89000000e+02 
93.557   5.74000000e+02 
93.521   6.22000000e+02 
93.485   6.23000000e+02 
93.449   5.37000000e+02 
93.413   5.88000000e+02 
93.377   5.52000000e+02 
93.341   5.94000000e+02 
93.305   6.08000000e+02 
93.270   5.64000000e+02 
93.234   6.08000000e+02 
93.198   5.44000000e+02 
93.162   6.15000000e+02 
93.126   5.59000000e+02 
93.090   6.62000000e+02 
93.054   6.52000000e+02 
93.018   7.00000000e+02 
92.982   6.30000000e+02 
92.946   6.95000000e+02 
92.910   6.98000000e+02 
92.874   7.61000000e+02 
92.838   7.15000000e+02 
92.802   7.56000000e+02 
92.766   8.07000000e+02 
92.730   8.29000000e+02 
92.695   8.16000000e+02 
92.659   7.75000000e+02 
92.623   9.01000000e+02 
92.587   8.81000000e+02 
92.551   9.21000000e+02 
92.515   9.49000000e+02 
92.479   9.65000000e+02 
92.443   1.01900000e+03 
92.407   1.09300000e+03 
92.371   1.12600000e+03 
92.335   1.18100000e+03 
92.299   1.14800000e+03 
92.263   1.18800000e+03 
92.227   1.28900000e+03 
92.191   1.34200000e+03 
92.155   1.34500000e+03 
92.120   1.32800000e+03 
92.084   1.37800000e+03 
92.048   1.45400000e+03 
92.012   1.57800000e+03 
91.976   1.59900000e+03 
91.940   1.55100000e+03 
91.904   1.66100000e+03 
91.868   1.67900000e+03 
91.832   1.77100000e+03 
91.796   1.71400000e+03 
91.760   1.82100000e+03 
91.724   1.81500000e+03 
91.688   1.82300000e+03 
91.652   2.02300000e+03 
91.616   2.06600000e+03 
91.580   2.13400000e+03 
91.545   2.22200000e+03 
91.509   2.17600000e+03 
91.473   2.18600000e+03 
91.437   2.19300000e+03 
91.401   2.40100000e+03 
91.365   2.40800000e+03 
91.329   2.45800000e+03 
91.293   2.49100000e+03 
91.257   2.49600000e+03 
91.221   2.55000000e+03 
91.185   2.54500000e+03 
91.149   2.53900000e+03 
91.113   2.68800000e+03 
91.077   2.59300000e+03 
91.041   2.63900000e+03 
91.005   2.58900000e+03 
90.970   2.53600000e+03 
90.934   2.55000000e+03 
90.898   2.48300000e+03 
90.862   2.36700000e+03 
90.826   2.38500000e+03 
90.790   2.41400000e+03 
90.754   2.30100000e+03 
90.718   2.18400000e+03 
90.682   2.09600000e+03 
90.646   1.91800000e+03 
90.610   1.69000000e+03 
90.574   1.70800000e+03 
90.538   1.53100000e+03 
90.502   1.40100000e+03 
90.466   1.28400000e+03 
90.430   1.21800000e+03 
90.395   1.06800000e+03 
90.359   9.37000000e+02 
90.323   8.70000000e+02 
90.287   7.87000000e+02 
90.251   7.02000000e+02 
90.215   6.49000000e+02 
90.179   5.70000000e+02 
90.143   5.30000000e+02 
90.107   5.07000000e+02 
90.071   5.19000000e+02 
90.035   4.76000000e+02 
89.999   3.82000000e+02 
89.963   3.82000000e+02 
89.927   3.44000000e+02 
89.891   3.19000000e+02 
89.855   3.33000000e+02 
89.820   3.55000000e+02 
89.784   3.07000000e+02 
89.748   3.00000000e+02 
89.712   3.15000000e+02 
89.676   3.00000000e+02 
89.640   3.06000000e+02 
89.604   2.82000000e+02 
89.568   2.66000000e+02 
89.532   2.37000000e+02 
89.496   2.41000000e+02 
89.460   2.55000000e+02 
89.424   2.75000000e+02 
89.388   2.54000000e+02 
89.352   2.49000000e+02 
89.316   2.39000000e+02 
89.280   2.28000000e+02 
89.245   2.21000000e+02 
89.209   2.29000000e+02 
89.173   2.58000000e+02 
89.137   2.26000000e+02 
89.101   2.07000000e+02 
89.065   2.14000000e+02 
89.029   2.10000000e+02 
88.993   1.97000000e+02 
88.957   2.03000000e+02 
88.921   2.07000000e+02 
88.885   2.11000000e+02 
88.849   2.14000000e+02 
88.813   2.01000000e+02 
88.777   1.96000000e+02 
88.741   2.05000000e+02 
88.705   2.04000000e+02 
88.670   2.11000000e+02 
88.634   2.18000000e+02 
88.598   1.97000000e+02 
88.562   1.83000000e+02 
88.526   1.83000000e+02 
88.490   2.18000000e+02 
88.454   2.14000000e+02 
88.418   2.17000000e+02 
88.382   1.78000000e+02 
88.346   1.95000000e+02 
88.310   1.91000000e+02 
88.274   1.87000000e+02 
88.238   1.88000000e+02 
88.202   2.20000000e+02 
88.166   2.10000000e+02 
88.130   2.05000000e+02 
88.095   1.72000000e+02 
88.059   1.93000000e+02 
88.023   1.90000000e+02 

