EXPERIMENT FILE
Version = 2

[ Experiment Parameters ]
Experiment Description= <none> 
Number_of_Regions_in_Experiment= 1 

Original_File_name= C:\alexesca\data\10172012_Au _4f_58nuetral+37.xps 
Instrument= HP ESCA West
Date= 10-17-2012
Time=  14:14:51

[ Layer Parameters ]
Layer_Type= XPS

[ Region 1 Parameters ]
Region_Description = Au 4f Dithered Scan                
BEcenter(eV) = 93.000000
BEwidth(eV) = 10.000000
BEstep(eV) = 0.035937
Dwell_Time(sec) = 1.000000
N_o_scans = 1  
N_o_Channels = 278  
Scan_mode = 0  (DITHERED)

[ L= 1 R= 1 ]
BEcenter= 93.000  
BEwidth= -9.955  
Excitation= 1486.600
Time_p_channel= 256.000 
Size= 278
97.977   5.64000000e+02 
97.941   4.91000000e+02 
97.905   4.99000000e+02 
97.870   4.87000000e+02 
97.834   5.11000000e+02 
97.798   5.10000000e+02 
97.762   5.04000000e+02 
97.726   5.38000000e+02 
97.690   5.44000000e+02 
97.654   5.33000000e+02 
97.618   5.27000000e+02 
97.582   5.38000000e+02 
97.546   5.27000000e+02 
97.510   5.55000000e+02 
97.474   5.41000000e+02 
97.438   5.98000000e+02 
97.402   5.40000000e+02 
97.366   6.02000000e+02 
97.330   6.45000000e+02 
97.295   6.15000000e+02 
97.259   5.76000000e+02 
97.223   5.89000000e+02 
97.187   6.03000000e+02 
97.151   6.17000000e+02 
97.115   6.55000000e+02 
97.079   6.82000000e+02 
97.043   6.43000000e+02 
97.007   6.99000000e+02 
96.971   6.90000000e+02 
96.935   7.31000000e+02 
96.899   7.75000000e+02 
96.863   7.36000000e+02 
96.827   7.43000000e+02 
96.791   8.19000000e+02 
96.755   8.32000000e+02 
96.720   8.09000000e+02 
96.684   8.34000000e+02 
96.648   9.59000000e+02 
96.612   8.62000000e+02 
96.576   8.95000000e+02 
96.540   1.03300000e+03 
96.504   1.02100000e+03 
96.468   1.05800000e+03 
96.432   1.07300000e+03 
96.396   1.06100000e+03 
96.360   1.15500000e+03 
96.324   1.15000000e+03 
96.288   1.19600000e+03 
96.252   1.27100000e+03 
96.216   1.24500000e+03 
96.180   1.24000000e+03 
96.145   1.33300000e+03 
96.109   1.28100000e+03 
96.073   1.40600000e+03 
96.037   1.36200000e+03 
96.001   1.41400000e+03 
95.965   1.53100000e+03 
95.929   1.45900000e+03 
95.893   1.56000000e+03 
95.857   1.54200000e+03 
95.821   1.53200000e+03 
95.785   1.57800000e+03 
95.749   1.62900000e+03 
95.713   1.58600000e+03 
95.677   1.58200000e+03 
95.641   1.66900000e+03 
95.605   1.72100000e+03 
95.570   1.68300000e+03 
95.534   1.72600000e+03 
95.498   1.78900000e+03 
95.462   1.73900000e+03 
95.426   1.73500000e+03 
95.390   1.80600000e+03 
95.354   1.77500000e+03 
95.318   1.80200000e+03 
95.282   1.80100000e+03 
95.246   1.84100000e+03 
95.210   1.79900000e+03 
95.174   1.87800000e+03 
95.138   1.86100000e+03 
95.102   1.84000000e+03 
95.066   1.93600000e+03 
95.030   1.89800000e+03 
94.995   1.96700000e+03 
94.959   1.98900000e+03 
94.923   1.90100000e+03 
94.887   1.91600000e+03 
94.851   1.95200000e+03 
94.815   2.03200000e+03 
94.779   1.94700000e+03 
94.743   1.90300000e+03 
94.707   1.96700000e+03 
94.671   2.01400000e+03 
94.635   1.95000000e+03 
94.599   2.00000000e+03 
94.563   1.92500000e+03 
94.527   1.93300000e+03 
94.491   1.98100000e+03 
94.455   1.90900000e+03 
94.420   1.81200000e+03 
94.384   1.87300000e+03 
94.348   1.78200000e+03 
94.312   1.71500000e+03 
94.276   1.70700000e+03 
94.240   1.69000000e+03 
94.204   1.60200000e+03 
94.168   1.58700000e+03 
94.132   1.44500000e+03 
94.096   1.40600000e+03 
94.060   1.37900000e+03 
94.024   1.33600000e+03 
93.988   1.30800000e+03 
93.952   1.14400000e+03 
93.916   1.16800000e+03 
93.880   1.06800000e+03 
93.845   1.02000000e+03 
93.809   9.68000000e+02 
93.773   9.06000000e+02 
93.737   8.81000000e+02 
93.701   8.72000000e+02 
93.665   7.95000000e+02 
93.629   7.72000000e+02 
93.593   7.92000000e+02 
93.557   7.48000000e+02 
93.521   7.88000000e+02 
93.485   7.58000000e+02 
93.449   7.15000000e+02 
93.413   7.31000000e+02 
93.377   7.02000000e+02 
93.341   7.62000000e+02 
93.305   7.55000000e+02 
93.270   7.83000000e+02 
93.234   7.48000000e+02 
93.198   7.97000000e+02 
93.162   7.91000000e+02 
93.126   8.52000000e+02 
93.090   9.44000000e+02 
93.054   8.96000000e+02 
93.018   9.06000000e+02 
92.982   9.82000000e+02 
92.946   9.67000000e+02 
92.910   1.01900000e+03 
92.874   1.09400000e+03 
92.838   1.12900000e+03 
92.802   1.19900000e+03 
92.766   1.17900000e+03 
92.730   1.21900000e+03 
92.695   1.22600000e+03 
92.659   1.26800000e+03 
92.623   1.31500000e+03 
92.587   1.35500000e+03 
92.551   1.47100000e+03 
92.515   1.35900000e+03 
92.479   1.54100000e+03 
92.443   1.49100000e+03 
92.407   1.49400000e+03 
92.371   1.63800000e+03 
92.335   1.58000000e+03 
92.299   1.58700000e+03 
92.263   1.70100000e+03 
92.227   1.75200000e+03 
92.191   1.70400000e+03 
92.155   1.68900000e+03 
92.120   1.84000000e+03 
92.084   1.81200000e+03 
92.048   1.85400000e+03 
92.012   1.89100000e+03 
91.976   1.91700000e+03 
91.940   1.97400000e+03 
91.904   1.91400000e+03 
91.868   1.98800000e+03 
91.832   2.06700000e+03 
91.796   1.97300000e+03 
91.760   2.07800000e+03 
91.724   2.15300000e+03 
91.688   2.03100000e+03 
91.652   2.06900000e+03 
91.616   2.13900000e+03 
91.580   2.07200000e+03 
91.545   2.10900000e+03 
91.509   2.10800000e+03 
91.473   2.19800000e+03 
91.437   2.15700000e+03 
91.401   2.17600000e+03 
91.365   2.27100000e+03 
91.329   2.17600000e+03 
91.293   2.18700000e+03 
91.257   2.24900000e+03 
91.221   2.24400000e+03 
91.185   2.23200000e+03 
91.149   2.28000000e+03 
91.113   2.18900000e+03 
91.077   2.24700000e+03 
91.041   2.37500000e+03 
91.005   2.24500000e+03 
90.970   2.24500000e+03 
90.934   2.32000000e+03 
90.898   2.22500000e+03 
90.862   2.22900000e+03 
90.826   2.13000000e+03 
90.790   2.11800000e+03 
90.754   2.12600000e+03 
90.718   2.03000000e+03 
90.682   2.06900000e+03 
90.646   1.96800000e+03 
90.610   1.91000000e+03 
90.574   1.76800000e+03 
90.538   1.72600000e+03 
90.502   1.69300000e+03 
90.466   1.68100000e+03 
90.430   1.37100000e+03 
90.395   1.41300000e+03 
90.359   1.30900000e+03 
90.323   1.24000000e+03 
90.287   1.19000000e+03 
90.251   1.04600000e+03 
90.215   1.00400000e+03 
90.179   9.23000000e+02 
90.143   7.85000000e+02 
90.107   7.51000000e+02 
90.071   7.36000000e+02 
90.035   6.48000000e+02 
89.999   5.83000000e+02 
89.963   5.45000000e+02 
89.927   4.79000000e+02 
89.891   4.51000000e+02 
89.855   4.96000000e+02 
89.820   4.25000000e+02 
89.784   3.82000000e+02 
89.748   3.75000000e+02 
89.712   3.11000000e+02 
89.676   3.52000000e+02 
89.640   3.17000000e+02 
89.604   2.98000000e+02 
89.568   3.24000000e+02 
89.532   2.92000000e+02 
89.496   2.96000000e+02 
89.460   2.80000000e+02 
89.424   2.73000000e+02 
89.388   2.51000000e+02 
89.352   2.59000000e+02 
89.316   2.75000000e+02 
89.280   2.75000000e+02 
89.245   2.42000000e+02 
89.209   2.38000000e+02 
89.173   2.45000000e+02 
89.137   2.48000000e+02 
89.101   2.22000000e+02 
89.065   2.20000000e+02 
89.029   2.17000000e+02 
88.993   2.20000000e+02 
88.957   2.12000000e+02 
88.921   2.25000000e+02 
88.885   2.41000000e+02 
88.849   2.21000000e+02 
88.813   2.21000000e+02 
88.777   1.90000000e+02 
88.741   2.26000000e+02 
88.705   2.31000000e+02 
88.670   2.05000000e+02 
88.634   2.06000000e+02 
88.598   2.16000000e+02 
88.562   2.20000000e+02 
88.526   2.23000000e+02 
88.490   1.91000000e+02 
88.454   2.08000000e+02 
88.418   2.25000000e+02 
88.382   1.87000000e+02 
88.346   2.09000000e+02 
88.310   2.09000000e+02 
88.274   2.09000000e+02 
88.238   1.86000000e+02 
88.202   1.94000000e+02 
88.166   1.93000000e+02 
88.130   1.83000000e+02 
88.095   1.84000000e+02 
88.059   1.75000000e+02 
88.023   2.06000000e+02 

