EXPERIMENT FILE
Version = 2

[ Experiment Parameters ]
Experiment Description= <none> 
Number_of_Regions_in_Experiment= 1 

Original_File_name= C:\alexesca\data\10182012_Au _4f_58nuetral+12_Mono220.xps 
Instrument= HP ESCA West
Date= 10-18-2012
Time=  17:07:58

[ Layer Parameters ]
Layer_Type= XPS

[ Region 1 Parameters ]
Region_Description = Au 4f Dithered Scan                
BEcenter(eV) = 93.000000
BEwidth(eV) = 10.000000
BEstep(eV) = 0.035937
Dwell_Time(sec) = 1.000000
N_o_scans = 1  
N_o_Channels = 278  
Scan_mode = 0  (DITHERED)

[ L= 1 R= 1 ]
BEcenter= 93.000  
BEwidth= -9.955  
Excitation= 1486.600
Time_p_channel= 256.000 
Size= 278
97.977   4.32000000e+02 
97.941   4.03000000e+02 
97.905   3.98000000e+02 
97.870   4.17000000e+02 
97.834   4.34000000e+02 
97.798   4.45000000e+02 
97.762   4.74000000e+02 
97.726   4.44000000e+02 
97.690   4.72000000e+02 
97.654   4.07000000e+02 
97.618   4.50000000e+02 
97.582   4.65000000e+02 
97.546   4.82000000e+02 
97.510   4.83000000e+02 
97.474   4.74000000e+02 
97.438   4.52000000e+02 
97.402   4.66000000e+02 
97.366   4.92000000e+02 
97.330   4.99000000e+02 
97.295   4.99000000e+02 
97.259   5.04000000e+02 
97.223   5.56000000e+02 
97.187   4.74000000e+02 
97.151   5.05000000e+02 
97.115   4.95000000e+02 
97.079   5.45000000e+02 
97.043   5.46000000e+02 
97.007   5.80000000e+02 
96.971   5.43000000e+02 
96.935   6.06000000e+02 
96.899   6.40000000e+02 
96.863   5.86000000e+02 
96.827   6.40000000e+02 
96.791   6.54000000e+02 
96.755   6.37000000e+02 
96.720   7.25000000e+02 
96.684   7.36000000e+02 
96.648   7.09000000e+02 
96.612   6.77000000e+02 
96.576   7.68000000e+02 
96.540   7.74000000e+02 
96.504   8.87000000e+02 
96.468   8.80000000e+02 
96.432   8.58000000e+02 
96.396   9.14000000e+02 
96.360   8.97000000e+02 
96.324   9.84000000e+02 
96.288   1.06200000e+03 
96.252   1.05000000e+03 
96.216   1.07800000e+03 
96.180   1.08300000e+03 
96.145   1.19000000e+03 
96.109   1.18100000e+03 
96.073   1.19400000e+03 
96.037   1.31900000e+03 
96.001   1.24300000e+03 
95.965   1.36900000e+03 
95.929   1.37100000e+03 
95.893   1.41900000e+03 
95.857   1.47200000e+03 
95.821   1.48500000e+03 
95.785   1.55500000e+03 
95.749   1.59600000e+03 
95.713   1.62100000e+03 
95.677   1.59700000e+03 
95.641   1.63400000e+03 
95.605   1.75000000e+03 
95.570   1.76400000e+03 
95.534   1.78900000e+03 
95.498   1.83400000e+03 
95.462   1.81000000e+03 
95.426   1.85800000e+03 
95.390   1.85800000e+03 
95.354   2.00400000e+03 
95.318   1.97300000e+03 
95.282   2.03600000e+03 
95.246   2.05600000e+03 
95.210   2.05100000e+03 
95.174   1.99000000e+03 
95.138   2.01200000e+03 
95.102   2.10700000e+03 
95.066   2.01100000e+03 
95.030   2.03200000e+03 
94.995   2.13200000e+03 
94.959   2.00100000e+03 
94.923   2.01100000e+03 
94.887   2.01700000e+03 
94.851   1.92500000e+03 
94.815   2.00500000e+03 
94.779   1.92200000e+03 
94.743   1.78800000e+03 
94.707   1.77600000e+03 
94.671   1.72900000e+03 
94.635   1.70700000e+03 
94.599   1.53000000e+03 
94.563   1.55300000e+03 
94.527   1.54200000e+03 
94.491   1.43900000e+03 
94.455   1.30000000e+03 
94.420   1.31900000e+03 
94.384   1.16000000e+03 
94.348   1.07500000e+03 
94.312   1.07600000e+03 
94.276   1.02200000e+03 
94.240   9.63000000e+02 
94.204   8.54000000e+02 
94.168   8.57000000e+02 
94.132   8.30000000e+02 
94.096   7.66000000e+02 
94.060   7.07000000e+02 
94.024   7.07000000e+02 
93.988   6.21000000e+02 
93.952   6.11000000e+02 
93.916   6.21000000e+02 
93.880   5.66000000e+02 
93.845   5.73000000e+02 
93.809   5.59000000e+02 
93.773   5.69000000e+02 
93.737   5.61000000e+02 
93.701   5.44000000e+02 
93.665   5.53000000e+02 
93.629   5.22000000e+02 
93.593   5.63000000e+02 
93.557   5.56000000e+02 
93.521   5.16000000e+02 
93.485   5.67000000e+02 
93.449   5.57000000e+02 
93.413   5.68000000e+02 
93.377   6.07000000e+02 
93.341   6.19000000e+02 
93.305   6.46000000e+02 
93.270   6.39000000e+02 
93.234   6.06000000e+02 
93.198   6.28000000e+02 
93.162   6.43000000e+02 
93.126   6.61000000e+02 
93.090   7.36000000e+02 
93.054   7.31000000e+02 
93.018   7.40000000e+02 
92.982   7.23000000e+02 
92.946   8.34000000e+02 
92.910   8.19000000e+02 
92.874   7.94000000e+02 
92.838   8.26000000e+02 
92.802   9.12000000e+02 
92.766   9.89000000e+02 
92.730   9.73000000e+02 
92.695   1.06600000e+03 
92.659   1.01800000e+03 
92.623   1.11000000e+03 
92.587   1.14200000e+03 
92.551   1.18300000e+03 
92.515   1.22400000e+03 
92.479   1.25600000e+03 
92.443   1.29200000e+03 
92.407   1.37100000e+03 
92.371   1.34300000e+03 
92.335   1.45300000e+03 
92.299   1.47400000e+03 
92.263   1.59700000e+03 
92.227   1.57200000e+03 
92.191   1.63200000e+03 
92.155   1.74700000e+03 
92.120   1.76500000e+03 
92.084   1.84400000e+03 
92.048   1.91900000e+03 
92.012   1.89000000e+03 
91.976   1.90700000e+03 
91.940   1.91200000e+03 
91.904   2.05200000e+03 
91.868   2.10000000e+03 
91.832   2.10000000e+03 
91.796   2.09100000e+03 
91.760   2.19400000e+03 
91.724   2.28100000e+03 
91.688   2.23300000e+03 
91.652   2.21900000e+03 
91.616   2.36300000e+03 
91.580   2.31700000e+03 
91.545   2.41200000e+03 
91.509   2.40200000e+03 
91.473   2.38300000e+03 
91.437   2.43000000e+03 
91.401   2.44000000e+03 
91.365   2.50600000e+03 
91.329   2.39400000e+03 
91.293   2.35900000e+03 
91.257   2.50000000e+03 
91.221   2.36600000e+03 
91.185   2.23100000e+03 
91.149   2.17600000e+03 
91.113   2.17300000e+03 
91.077   2.08900000e+03 
91.041   2.14600000e+03 
91.005   1.94200000e+03 
90.970   1.92300000e+03 
90.934   1.83900000e+03 
90.898   1.73100000e+03 
90.862   1.72200000e+03 
90.826   1.57100000e+03 
90.790   1.47700000e+03 
90.754   1.29800000e+03 
90.718   1.25500000e+03 
90.682   1.19300000e+03 
90.646   1.11700000e+03 
90.610   1.08600000e+03 
90.574   9.34000000e+02 
90.538   8.12000000e+02 
90.502   7.99000000e+02 
90.466   7.00000000e+02 
90.430   6.61000000e+02 
90.395   5.90000000e+02 
90.359   5.27000000e+02 
90.323   5.04000000e+02 
90.287   4.97000000e+02 
90.251   3.99000000e+02 
90.215   4.13000000e+02 
90.179   3.74000000e+02 
90.143   3.41000000e+02 
90.107   3.18000000e+02 
90.071   3.20000000e+02 
90.035   3.01000000e+02 
89.999   3.33000000e+02 
89.963   3.19000000e+02 
89.927   2.93000000e+02 
89.891   2.67000000e+02 
89.855   2.76000000e+02 
89.820   2.89000000e+02 
89.784   2.90000000e+02 
89.748   2.59000000e+02 
89.712   2.23000000e+02 
89.676   2.57000000e+02 
89.640   2.51000000e+02 
89.604   2.15000000e+02 
89.568   2.40000000e+02 
89.532   2.57000000e+02 
89.496   2.35000000e+02 
89.460   2.50000000e+02 
89.424   2.39000000e+02 
89.388   2.22000000e+02 
89.352   2.11000000e+02 
89.316   2.33000000e+02 
89.280   2.03000000e+02 
89.245   2.04000000e+02 
89.209   1.91000000e+02 
89.173   2.24000000e+02 
89.137   1.89000000e+02 
89.101   2.03000000e+02 
89.065   2.16000000e+02 
89.029   2.01000000e+02 
88.993   2.03000000e+02 
88.957   2.01000000e+02 
88.921   1.99000000e+02 
88.885   1.96000000e+02 
88.849   1.80000000e+02 
88.813   1.71000000e+02 
88.777   1.96000000e+02 
88.741   1.72000000e+02 
88.705   1.75000000e+02 
88.670   1.93000000e+02 
88.634   1.57000000e+02 
88.598   1.64000000e+02 
88.562   1.71000000e+02 
88.526   1.83000000e+02 
88.490   1.99000000e+02 
88.454   2.10000000e+02 
88.418   2.08000000e+02 
88.382   1.67000000e+02 
88.346   1.63000000e+02 
88.310   1.74000000e+02 
88.274   1.86000000e+02 
88.238   1.76000000e+02 
88.202   1.69000000e+02 
88.166   1.89000000e+02 
88.130   1.75000000e+02 
88.095   1.71000000e+02 
88.059   1.64000000e+02 
88.023   1.68000000e+02 

