EXPERIMENT FILE
Version = 2

[ Experiment Parameters ]
Experiment Description= <none> 
Number_of_Regions_in_Experiment= 1 

Original_File_name= C:\alexesca\data\10182012_Au _4f_58nuetral+12.xps 
Instrument= HP ESCA West
Date= 10-18-2012
Time=  15:23:18

[ Layer Parameters ]
Layer_Type= XPS

[ Region 1 Parameters ]
Region_Description = Au 4f Dithered Scan                
BEcenter(eV) = 93.000000
BEwidth(eV) = 10.000000
BEstep(eV) = 0.035937
Dwell_Time(sec) = 1.000000
N_o_scans = 1  
N_o_Channels = 278  
Scan_mode = 0  (DITHERED)

[ L= 1 R= 1 ]
BEcenter= 93.000  
BEwidth= -9.955  
Excitation= 1486.600
Time_p_channel= 256.000 
Size= 278
97.977   4.05000000e+02 
97.941   3.62000000e+02 
97.905   3.85000000e+02 
97.870   3.89000000e+02 
97.834   3.63000000e+02 
97.798   4.03000000e+02 
97.762   3.47000000e+02 
97.726   3.43000000e+02 
97.690   3.73000000e+02 
97.654   3.31000000e+02 
97.618   3.64000000e+02 
97.582   3.76000000e+02 
97.546   3.60000000e+02 
97.510   4.09000000e+02 
97.474   4.12000000e+02 
97.438   3.75000000e+02 
97.402   3.47000000e+02 
97.366   4.16000000e+02 
97.330   4.03000000e+02 
97.295   4.46000000e+02 
97.259   3.73000000e+02 
97.223   3.88000000e+02 
97.187   4.24000000e+02 
97.151   4.05000000e+02 
97.115   4.20000000e+02 
97.079   4.25000000e+02 
97.043   4.00000000e+02 
97.007   4.32000000e+02 
96.971   4.27000000e+02 
96.935   4.55000000e+02 
96.899   4.57000000e+02 
96.863   4.54000000e+02 
96.827   4.46000000e+02 
96.791   4.98000000e+02 
96.755   4.45000000e+02 
96.720   4.54000000e+02 
96.684   4.91000000e+02 
96.648   4.95000000e+02 
96.612   5.21000000e+02 
96.576   5.31000000e+02 
96.540   5.10000000e+02 
96.504   5.45000000e+02 
96.468   5.51000000e+02 
96.432   5.42000000e+02 
96.396   5.51000000e+02 
96.360   5.44000000e+02 
96.324   6.13000000e+02 
96.288   6.35000000e+02 
96.252   6.11000000e+02 
96.216   6.41000000e+02 
96.180   6.51000000e+02 
96.145   6.91000000e+02 
96.109   6.45000000e+02 
96.073   7.22000000e+02 
96.037   7.22000000e+02 
96.001   7.41000000e+02 
95.965   7.96000000e+02 
95.929   7.97000000e+02 
95.893   8.20000000e+02 
95.857   8.69000000e+02 
95.821   8.40000000e+02 
95.785   8.94000000e+02 
95.749   9.02000000e+02 
95.713   9.00000000e+02 
95.677   9.33000000e+02 
95.641   1.01100000e+03 
95.605   9.92000000e+02 
95.570   1.00800000e+03 
95.534   1.05500000e+03 
95.498   1.07700000e+03 
95.462   1.15900000e+03 
95.426   1.16400000e+03 
95.390   1.20400000e+03 
95.354   1.19700000e+03 
95.318   1.25100000e+03 
95.282   1.24400000e+03 
95.246   1.29800000e+03 
95.210   1.33700000e+03 
95.174   1.38600000e+03 
95.138   1.42200000e+03 
95.102   1.49000000e+03 
95.066   1.48700000e+03 
95.030   1.61600000e+03 
94.995   1.61300000e+03 
94.959   1.63300000e+03 
94.923   1.67500000e+03 
94.887   1.77400000e+03 
94.851   1.79800000e+03 
94.815   1.79200000e+03 
94.779   1.71900000e+03 
94.743   1.78400000e+03 
94.707   1.86600000e+03 
94.671   1.83400000e+03 
94.635   1.80900000e+03 
94.599   1.90100000e+03 
94.563   1.80300000e+03 
94.527   1.80300000e+03 
94.491   1.79300000e+03 
94.455   1.78500000e+03 
94.420   1.73900000e+03 
94.384   1.76500000e+03 
94.348   1.71400000e+03 
94.312   1.64800000e+03 
94.276   1.59600000e+03 
94.240   1.52000000e+03 
94.204   1.43700000e+03 
94.168   1.34200000e+03 
94.132   1.24700000e+03 
94.096   1.10400000e+03 
94.060   1.10700000e+03 
94.024   9.79000000e+02 
93.988   8.63000000e+02 
93.952   8.58000000e+02 
93.916   8.02000000e+02 
93.880   6.93000000e+02 
93.845   7.28000000e+02 
93.809   6.64000000e+02 
93.773   6.19000000e+02 
93.737   5.86000000e+02 
93.701   5.79000000e+02 
93.665   4.92000000e+02 
93.629   5.14000000e+02 
93.593   4.56000000e+02 
93.557   4.64000000e+02 
93.521   4.30000000e+02 
93.485   4.67000000e+02 
93.449   4.44000000e+02 
93.413   4.82000000e+02 
93.377   4.44000000e+02 
93.341   4.77000000e+02 
93.305   4.58000000e+02 
93.270   4.52000000e+02 
93.234   5.14000000e+02 
93.198   4.62000000e+02 
93.162   4.71000000e+02 
93.126   4.90000000e+02 
93.090   4.90000000e+02 
93.054   4.87000000e+02 
93.018   4.77000000e+02 
92.982   5.08000000e+02 
92.946   5.16000000e+02 
92.910   5.21000000e+02 
92.874   5.09000000e+02 
92.838   5.24000000e+02 
92.802   5.24000000e+02 
92.766   6.10000000e+02 
92.730   5.97000000e+02 
92.695   6.33000000e+02 
92.659   5.59000000e+02 
92.623   5.82000000e+02 
92.587   6.82000000e+02 
92.551   6.64000000e+02 
92.515   7.08000000e+02 
92.479   6.70000000e+02 
92.443   7.41000000e+02 
92.407   7.44000000e+02 
92.371   7.57000000e+02 
92.335   8.26000000e+02 
92.299   8.23000000e+02 
92.263   8.64000000e+02 
92.227   9.14000000e+02 
92.191   9.29000000e+02 
92.155   9.28000000e+02 
92.120   9.27000000e+02 
92.084   9.56000000e+02 
92.048   1.06400000e+03 
92.012   9.96000000e+02 
91.976   1.12000000e+03 
91.940   1.19600000e+03 
91.904   1.15300000e+03 
91.868   1.19500000e+03 
91.832   1.27700000e+03 
91.796   1.23900000e+03 
91.760   1.32800000e+03 
91.724   1.43100000e+03 
91.688   1.50000000e+03 
91.652   1.47300000e+03 
91.616   1.56400000e+03 
91.580   1.58100000e+03 
91.545   1.54700000e+03 
91.509   1.65200000e+03 
91.473   1.73000000e+03 
91.437   1.77200000e+03 
91.401   1.81400000e+03 
91.365   1.80400000e+03 
91.329   1.89200000e+03 
91.293   1.93700000e+03 
91.257   1.97600000e+03 
91.221   2.03800000e+03 
91.185   2.14600000e+03 
91.149   2.05200000e+03 
91.113   2.09800000e+03 
91.077   2.19300000e+03 
91.041   2.22100000e+03 
91.005   2.24100000e+03 
90.970   2.17400000e+03 
90.934   2.21900000e+03 
90.898   2.21900000e+03 
90.862   2.25400000e+03 
90.826   2.20400000e+03 
90.790   2.16300000e+03 
90.754   2.11800000e+03 
90.718   2.07300000e+03 
90.682   1.91700000e+03 
90.646   2.00300000e+03 
90.610   1.79700000e+03 
90.574   1.70500000e+03 
90.538   1.60300000e+03 
90.502   1.48400000e+03 
90.466   1.41600000e+03 
90.430   1.22600000e+03 
90.395   1.17600000e+03 
90.359   1.02300000e+03 
90.323   9.46000000e+02 
90.287   8.19000000e+02 
90.251   8.18000000e+02 
90.215   7.32000000e+02 
90.179   5.81000000e+02 
90.143   5.44000000e+02 
90.107   4.80000000e+02 
90.071   4.82000000e+02 
90.035   4.26000000e+02 
89.999   4.21000000e+02 
89.963   3.62000000e+02 
89.927   3.52000000e+02 
89.891   3.40000000e+02 
89.855   2.96000000e+02 
89.820   3.14000000e+02 
89.784   2.97000000e+02 
89.748   3.25000000e+02 
89.712   2.58000000e+02 
89.676   2.42000000e+02 
89.640   2.65000000e+02 
89.604   2.57000000e+02 
89.568   2.37000000e+02 
89.532   2.40000000e+02 
89.496   2.35000000e+02 
89.460   2.30000000e+02 
89.424   2.28000000e+02 
89.388   1.89000000e+02 
89.352   1.91000000e+02 
89.316   2.24000000e+02 
89.280   2.05000000e+02 
89.245   2.03000000e+02 
89.209   1.97000000e+02 
89.173   2.17000000e+02 
89.137   1.77000000e+02 
89.101   2.03000000e+02 
89.065   2.09000000e+02 
89.029   2.08000000e+02 
88.993   1.84000000e+02 
88.957   2.10000000e+02 
88.921   1.80000000e+02 
88.885   1.64000000e+02 
88.849   1.77000000e+02 
88.813   1.75000000e+02 
88.777   1.68000000e+02 
88.741   2.07000000e+02 
88.705   1.57000000e+02 
88.670   1.68000000e+02 
88.634   1.61000000e+02 
88.598   1.75000000e+02 
88.562   1.52000000e+02 
88.526   1.53000000e+02 
88.490   1.43000000e+02 
88.454   1.63000000e+02 
88.418   1.74000000e+02 
88.382   1.77000000e+02 
88.346   1.47000000e+02 
88.310   1.61000000e+02 
88.274   1.50000000e+02 
88.238   1.55000000e+02 
88.202   1.48000000e+02 
88.166   1.65000000e+02 
88.130   1.40000000e+02 
88.095   1.46000000e+02 
88.059   1.36000000e+02 
88.023   1.46000000e+02 

