EXPERIMENT FILE
Version = 2

[ Experiment Parameters ]
Experiment Description= <none> 
Number_of_Regions_in_Experiment= 1 

Original_File_name= C:\alexesca\data\10182012_Au _4f_58nuetral-8.xps 
Instrument= HP ESCA West
Date= 10-18-2012
Time=  15:08:18

[ Layer Parameters ]
Layer_Type= XPS

[ Region 1 Parameters ]
Region_Description = Au 4f Dithered Scan                
BEcenter(eV) = 93.000000
BEwidth(eV) = 10.000000
BEstep(eV) = 0.035937
Dwell_Time(sec) = 1.000000
N_o_scans = 1  
N_o_Channels = 278  
Scan_mode = 0  (DITHERED)

[ L= 1 R= 1 ]
BEcenter= 93.000  
BEwidth= -9.955  
Excitation= 1486.600
Time_p_channel= 256.000 
Size= 278
97.977   2.57000000e+02 
97.941   2.53000000e+02 
97.905   2.52000000e+02 
97.870   2.62000000e+02 
97.834   2.54000000e+02 
97.798   2.41000000e+02 
97.762   2.47000000e+02 
97.726   2.54000000e+02 
97.690   2.15000000e+02 
97.654   2.49000000e+02 
97.618   2.37000000e+02 
97.582   2.41000000e+02 
97.546   2.68000000e+02 
97.510   2.57000000e+02 
97.474   2.44000000e+02 
97.438   2.67000000e+02 
97.402   2.75000000e+02 
97.366   2.62000000e+02 
97.330   2.68000000e+02 
97.295   2.68000000e+02 
97.259   2.77000000e+02 
97.223   2.72000000e+02 
97.187   2.96000000e+02 
97.151   2.75000000e+02 
97.115   2.79000000e+02 
97.079   2.58000000e+02 
97.043   2.74000000e+02 
97.007   2.77000000e+02 
96.971   3.07000000e+02 
96.935   2.79000000e+02 
96.899   2.81000000e+02 
96.863   2.95000000e+02 
96.827   2.97000000e+02 
96.791   2.91000000e+02 
96.755   2.96000000e+02 
96.720   3.10000000e+02 
96.684   2.97000000e+02 
96.648   3.22000000e+02 
96.612   2.91000000e+02 
96.576   3.43000000e+02 
96.540   3.28000000e+02 
96.504   3.13000000e+02 
96.468   3.01000000e+02 
96.432   3.32000000e+02 
96.396   3.51000000e+02 
96.360   3.44000000e+02 
96.324   3.50000000e+02 
96.288   3.62000000e+02 
96.252   3.91000000e+02 
96.216   4.31000000e+02 
96.180   3.74000000e+02 
96.145   4.01000000e+02 
96.109   4.32000000e+02 
96.073   4.22000000e+02 
96.037   4.74000000e+02 
96.001   4.44000000e+02 
95.965   4.54000000e+02 
95.929   4.78000000e+02 
95.893   4.75000000e+02 
95.857   4.93000000e+02 
95.821   5.43000000e+02 
95.785   5.46000000e+02 
95.749   6.05000000e+02 
95.713   6.08000000e+02 
95.677   5.89000000e+02 
95.641   6.58000000e+02 
95.605   6.57000000e+02 
95.570   7.21000000e+02 
95.534   7.23000000e+02 
95.498   7.86000000e+02 
95.462   7.76000000e+02 
95.426   8.36000000e+02 
95.390   8.14000000e+02 
95.354   8.89000000e+02 
95.318   9.31000000e+02 
95.282   9.30000000e+02 
95.246   9.87000000e+02 
95.210   1.05500000e+03 
95.174   1.07200000e+03 
95.138   1.12800000e+03 
95.102   1.13700000e+03 
95.066   1.23900000e+03 
95.030   1.19600000e+03 
94.995   1.29100000e+03 
94.959   1.31000000e+03 
94.923   1.39100000e+03 
94.887   1.40300000e+03 
94.851   1.45500000e+03 
94.815   1.41700000e+03 
94.779   1.46800000e+03 
94.743   1.46800000e+03 
94.707   1.45900000e+03 
94.671   1.46800000e+03 
94.635   1.43500000e+03 
94.599   1.26600000e+03 
94.563   1.32400000e+03 
94.527   1.30300000e+03 
94.491   1.26100000e+03 
94.455   1.16000000e+03 
94.420   1.07100000e+03 
94.384   1.00400000e+03 
94.348   1.00100000e+03 
94.312   9.15000000e+02 
94.276   7.62000000e+02 
94.240   7.44000000e+02 
94.204   7.16000000e+02 
94.168   6.36000000e+02 
94.132   5.88000000e+02 
94.096   4.91000000e+02 
94.060   4.89000000e+02 
94.024   4.80000000e+02 
93.988   4.21000000e+02 
93.952   3.54000000e+02 
93.916   3.96000000e+02 
93.880   3.56000000e+02 
93.845   3.87000000e+02 
93.809   3.22000000e+02 
93.773   3.40000000e+02 
93.737   2.89000000e+02 
93.701   3.04000000e+02 
93.665   3.22000000e+02 
93.629   3.05000000e+02 
93.593   2.94000000e+02 
93.557   3.31000000e+02 
93.521   2.61000000e+02 
93.485   2.84000000e+02 
93.449   2.76000000e+02 
93.413   2.96000000e+02 
93.377   2.80000000e+02 
93.341   2.84000000e+02 
93.305   2.85000000e+02 
93.270   2.72000000e+02 
93.234   2.93000000e+02 
93.198   2.75000000e+02 
93.162   2.89000000e+02 
93.126   3.08000000e+02 
93.090   2.81000000e+02 
93.054   2.75000000e+02 
93.018   2.85000000e+02 
92.982   2.87000000e+02 
92.946   2.96000000e+02 
92.910   3.27000000e+02 
92.874   3.46000000e+02 
92.838   3.21000000e+02 
92.802   3.48000000e+02 
92.766   3.14000000e+02 
92.730   3.39000000e+02 
92.695   3.44000000e+02 
92.659   3.35000000e+02 
92.623   3.77000000e+02 
92.587   3.60000000e+02 
92.551   3.86000000e+02 
92.515   4.43000000e+02 
92.479   4.05000000e+02 
92.443   4.19000000e+02 
92.407   4.20000000e+02 
92.371   4.40000000e+02 
92.335   5.31000000e+02 
92.299   4.78000000e+02 
92.263   5.61000000e+02 
92.227   4.92000000e+02 
92.191   5.62000000e+02 
92.155   5.71000000e+02 
92.120   6.19000000e+02 
92.084   6.10000000e+02 
92.048   6.47000000e+02 
92.012   6.73000000e+02 
91.976   6.98000000e+02 
91.940   7.09000000e+02 
91.904   7.90000000e+02 
91.868   7.70000000e+02 
91.832   8.40000000e+02 
91.796   8.96000000e+02 
91.760   9.27000000e+02 
91.724   9.40000000e+02 
91.688   1.01400000e+03 
91.652   1.12000000e+03 
91.616   1.13100000e+03 
91.580   1.17200000e+03 
91.545   1.18000000e+03 
91.509   1.28400000e+03 
91.473   1.32200000e+03 
91.437   1.37300000e+03 
91.401   1.33600000e+03 
91.365   1.46900000e+03 
91.329   1.53800000e+03 
91.293   1.53300000e+03 
91.257   1.60300000e+03 
91.221   1.61500000e+03 
91.185   1.77400000e+03 
91.149   1.63300000e+03 
91.113   1.76100000e+03 
91.077   1.77800000e+03 
91.041   1.80200000e+03 
91.005   1.69800000e+03 
90.970   1.73500000e+03 
90.934   1.72700000e+03 
90.898   1.63200000e+03 
90.862   1.60100000e+03 
90.826   1.46500000e+03 
90.790   1.31300000e+03 
90.754   1.36200000e+03 
90.718   1.22100000e+03 
90.682   1.07400000e+03 
90.646   9.65000000e+02 
90.610   8.38000000e+02 
90.574   8.18000000e+02 
90.538   7.08000000e+02 
90.502   6.56000000e+02 
90.466   5.61000000e+02 
90.430   5.22000000e+02 
90.395   4.48000000e+02 
90.359   4.36000000e+02 
90.323   3.92000000e+02 
90.287   3.65000000e+02 
90.251   3.25000000e+02 
90.215   2.84000000e+02 
90.179   2.77000000e+02 
90.143   2.75000000e+02 
90.107   2.35000000e+02 
90.071   2.17000000e+02 
90.035   2.36000000e+02 
89.999   2.23000000e+02 
89.963   2.29000000e+02 
89.927   2.17000000e+02 
89.891   1.96000000e+02 
89.855   1.83000000e+02 
89.820   1.88000000e+02 
89.784   1.63000000e+02 
89.748   1.68000000e+02 
89.712   1.60000000e+02 
89.676   1.77000000e+02 
89.640   1.64000000e+02 
89.604   1.62000000e+02 
89.568   1.40000000e+02 
89.532   1.53000000e+02 
89.496   1.53000000e+02 
89.460   1.50000000e+02 
89.424   1.61000000e+02 
89.388   1.48000000e+02 
89.352   1.35000000e+02 
89.316   1.30000000e+02 
89.280   1.43000000e+02 
89.245   1.57000000e+02 
89.209   1.36000000e+02 
89.173   1.25000000e+02 
89.137   1.31000000e+02 
89.101   1.40000000e+02 
89.065   1.47000000e+02 
89.029   1.29000000e+02 
88.993   1.28000000e+02 
88.957   1.46000000e+02 
88.921   1.15000000e+02 
88.885   1.21000000e+02 
88.849   1.21000000e+02 
88.813   1.12000000e+02 
88.777   1.25000000e+02 
88.741   1.14000000e+02 
88.705   1.15000000e+02 
88.670   1.03000000e+02 
88.634   1.23000000e+02 
88.598   1.14000000e+02 
88.562   1.28000000e+02 
88.526   1.14000000e+02 
88.490   1.37000000e+02 
88.454   1.14000000e+02 
88.418   1.02000000e+02 
88.382   1.03000000e+02 
88.346   1.04000000e+02 
88.310   1.10000000e+02 
88.274   1.13000000e+02 
88.238   1.19000000e+02 
88.202   1.01000000e+02 
88.166   1.02000000e+02 
88.130   1.28000000e+02 
88.095   1.02000000e+02 
88.059   1.17000000e+02 
88.023   1.06000000e+02 

