EXPERIMENT FILE
Version = 2

[ Experiment Parameters ]
Experiment Description= <none> 
Number_of_Regions_in_Experiment= 1 

Original_File_name= C:\alexesca\data\10182012_Au _4f_58nuetral+37.xps 
Instrument= HP ESCA West
Date= 10-18-2012
Time=  15:34:37

[ Layer Parameters ]
Layer_Type= XPS

[ Region 1 Parameters ]
Region_Description = Au 4f Dithered Scan                
BEcenter(eV) = 93.000000
BEwidth(eV) = 10.000000
BEstep(eV) = 0.035937
Dwell_Time(sec) = 1.000000
N_o_scans = 1  
N_o_Channels = 278  
Scan_mode = 0  (DITHERED)

[ L= 1 R= 1 ]
BEcenter= 93.000  
BEwidth= -9.955  
Excitation= 1486.600
Time_p_channel= 256.000 
Size= 278
97.977   3.32000000e+02 
97.941   3.18000000e+02 
97.905   3.52000000e+02 
97.870   3.39000000e+02 
97.834   3.19000000e+02 
97.798   3.33000000e+02 
97.762   3.31000000e+02 
97.726   3.50000000e+02 
97.690   3.37000000e+02 
97.654   3.62000000e+02 
97.618   3.54000000e+02 
97.582   3.65000000e+02 
97.546   3.21000000e+02 
97.510   3.83000000e+02 
97.474   3.87000000e+02 
97.438   3.46000000e+02 
97.402   3.93000000e+02 
97.366   3.56000000e+02 
97.330   4.05000000e+02 
97.295   4.15000000e+02 
97.259   3.91000000e+02 
97.223   3.45000000e+02 
97.187   3.83000000e+02 
97.151   4.09000000e+02 
97.115   4.16000000e+02 
97.079   3.77000000e+02 
97.043   4.45000000e+02 
97.007   4.10000000e+02 
96.971   4.41000000e+02 
96.935   4.85000000e+02 
96.899   4.75000000e+02 
96.863   4.87000000e+02 
96.827   4.98000000e+02 
96.791   5.15000000e+02 
96.755   5.44000000e+02 
96.720   5.64000000e+02 
96.684   5.40000000e+02 
96.648   5.09000000e+02 
96.612   5.93000000e+02 
96.576   5.59000000e+02 
96.540   5.63000000e+02 
96.504   6.73000000e+02 
96.468   6.38000000e+02 
96.432   6.80000000e+02 
96.396   7.10000000e+02 
96.360   6.97000000e+02 
96.324   7.29000000e+02 
96.288   7.65000000e+02 
96.252   7.68000000e+02 
96.216   7.40000000e+02 
96.180   7.99000000e+02 
96.145   8.29000000e+02 
96.109   8.35000000e+02 
96.073   8.24000000e+02 
96.037   8.85000000e+02 
96.001   9.32000000e+02 
95.965   9.27000000e+02 
95.929   9.43000000e+02 
95.893   9.13000000e+02 
95.857   9.36000000e+02 
95.821   9.59000000e+02 
95.785   9.95000000e+02 
95.749   1.06500000e+03 
95.713   1.07800000e+03 
95.677   1.05100000e+03 
95.641   1.03900000e+03 
95.605   1.07700000e+03 
95.570   1.10800000e+03 
95.534   1.15600000e+03 
95.498   1.05500000e+03 
95.462   1.11300000e+03 
95.426   1.14300000e+03 
95.390   1.14200000e+03 
95.354   1.12000000e+03 
95.318   1.14500000e+03 
95.282   1.21100000e+03 
95.246   1.19400000e+03 
95.210   1.13300000e+03 
95.174   1.24700000e+03 
95.138   1.25400000e+03 
95.102   1.19800000e+03 
95.066   1.28600000e+03 
95.030   1.24400000e+03 
94.995   1.22200000e+03 
94.959   1.21800000e+03 
94.923   1.34800000e+03 
94.887   1.33100000e+03 
94.851   1.28300000e+03 
94.815   1.35600000e+03 
94.779   1.36800000e+03 
94.743   1.35800000e+03 
94.707   1.36100000e+03 
94.671   1.26200000e+03 
94.635   1.34200000e+03 
94.599   1.28400000e+03 
94.563   1.23400000e+03 
94.527   1.30900000e+03 
94.491   1.26900000e+03 
94.455   1.28900000e+03 
94.420   1.29400000e+03 
94.384   1.21300000e+03 
94.348   1.31000000e+03 
94.312   1.23900000e+03 
94.276   1.18700000e+03 
94.240   1.23100000e+03 
94.204   1.07500000e+03 
94.168   1.13200000e+03 
94.132   1.02700000e+03 
94.096   1.06600000e+03 
94.060   9.70000000e+02 
94.024   9.12000000e+02 
93.988   8.78000000e+02 
93.952   8.70000000e+02 
93.916   8.24000000e+02 
93.880   7.09000000e+02 
93.845   7.54000000e+02 
93.809   7.18000000e+02 
93.773   6.56000000e+02 
93.737   5.83000000e+02 
93.701   6.41000000e+02 
93.665   5.67000000e+02 
93.629   5.41000000e+02 
93.593   5.45000000e+02 
93.557   4.95000000e+02 
93.521   5.35000000e+02 
93.485   5.18000000e+02 
93.449   4.98000000e+02 
93.413   4.71000000e+02 
93.377   5.32000000e+02 
93.341   4.69000000e+02 
93.305   4.74000000e+02 
93.270   5.05000000e+02 
93.234   4.90000000e+02 
93.198   5.18000000e+02 
93.162   5.54000000e+02 
93.126   5.71000000e+02 
93.090   5.38000000e+02 
93.054   5.99000000e+02 
93.018   6.18000000e+02 
92.982   5.96000000e+02 
92.946   6.23000000e+02 
92.910   6.45000000e+02 
92.874   6.34000000e+02 
92.838   6.93000000e+02 
92.802   7.26000000e+02 
92.766   7.54000000e+02 
92.730   7.15000000e+02 
92.695   7.58000000e+02 
92.659   8.32000000e+02 
92.623   8.06000000e+02 
92.587   8.33000000e+02 
92.551   8.66000000e+02 
92.515   8.80000000e+02 
92.479   8.87000000e+02 
92.443   9.30000000e+02 
92.407   9.96000000e+02 
92.371   9.87000000e+02 
92.335   1.02700000e+03 
92.299   1.07200000e+03 
92.263   1.07600000e+03 
92.227   1.05900000e+03 
92.191   1.07400000e+03 
92.155   1.16800000e+03 
92.120   1.13400000e+03 
92.084   1.13400000e+03 
92.048   1.13500000e+03 
92.012   1.11700000e+03 
91.976   1.17900000e+03 
91.940   1.23700000e+03 
91.904   1.25300000e+03 
91.868   1.24000000e+03 
91.832   1.30300000e+03 
91.796   1.29000000e+03 
91.760   1.30500000e+03 
91.724   1.33900000e+03 
91.688   1.31600000e+03 
91.652   1.36600000e+03 
91.616   1.38300000e+03 
91.580   1.36600000e+03 
91.545   1.41400000e+03 
91.509   1.43600000e+03 
91.473   1.34500000e+03 
91.437   1.42000000e+03 
91.401   1.44200000e+03 
91.365   1.45700000e+03 
91.329   1.50300000e+03 
91.293   1.51600000e+03 
91.257   1.47600000e+03 
91.221   1.49000000e+03 
91.185   1.42900000e+03 
91.149   1.47100000e+03 
91.113   1.57600000e+03 
91.077   1.52000000e+03 
91.041   1.49800000e+03 
91.005   1.56200000e+03 
90.970   1.43900000e+03 
90.934   1.54000000e+03 
90.898   1.55400000e+03 
90.862   1.49800000e+03 
90.826   1.48500000e+03 
90.790   1.49200000e+03 
90.754   1.43900000e+03 
90.718   1.43500000e+03 
90.682   1.37300000e+03 
90.646   1.38800000e+03 
90.610   1.38000000e+03 
90.574   1.26900000e+03 
90.538   1.27200000e+03 
90.502   1.14400000e+03 
90.466   1.15900000e+03 
90.430   1.07600000e+03 
90.395   1.00400000e+03 
90.359   9.56000000e+02 
90.323   8.84000000e+02 
90.287   8.37000000e+02 
90.251   7.51000000e+02 
90.215   7.13000000e+02 
90.179   6.77000000e+02 
90.143   6.33000000e+02 
90.107   5.82000000e+02 
90.071   5.67000000e+02 
90.035   4.90000000e+02 
89.999   4.12000000e+02 
89.963   3.97000000e+02 
89.927   3.68000000e+02 
89.891   3.59000000e+02 
89.855   3.42000000e+02 
89.820   2.96000000e+02 
89.784   2.49000000e+02 
89.748   2.40000000e+02 
89.712   2.64000000e+02 
89.676   2.72000000e+02 
89.640   2.25000000e+02 
89.604   2.11000000e+02 
89.568   2.34000000e+02 
89.532   2.06000000e+02 
89.496   2.18000000e+02 
89.460   1.88000000e+02 
89.424   1.79000000e+02 
89.388   1.88000000e+02 
89.352   1.76000000e+02 
89.316   1.68000000e+02 
89.280   1.91000000e+02 
89.245   1.65000000e+02 
89.209   1.65000000e+02 
89.173   1.90000000e+02 
89.137   1.67000000e+02 
89.101   1.71000000e+02 
89.065   1.56000000e+02 
89.029   1.53000000e+02 
88.993   1.36000000e+02 
88.957   1.62000000e+02 
88.921   1.75000000e+02 
88.885   1.55000000e+02 
88.849   1.54000000e+02 
88.813   1.44000000e+02 
88.777   1.70000000e+02 
88.741   1.48000000e+02 
88.705   1.52000000e+02 
88.670   1.35000000e+02 
88.634   1.37000000e+02 
88.598   1.58000000e+02 
88.562   1.51000000e+02 
88.526   1.33000000e+02 
88.490   1.56000000e+02 
88.454   1.44000000e+02 
88.418   1.48000000e+02 
88.382   1.30000000e+02 
88.346   1.37000000e+02 
88.310   1.43000000e+02 
88.274   1.24000000e+02 
88.238   1.26000000e+02 
88.202   1.42000000e+02 
88.166   1.10000000e+02 
88.130   1.46000000e+02 
88.095   1.47000000e+02 
88.059   1.23000000e+02 
88.023   1.23000000e+02 

