EXPERIMENT FILE
Version = 2

[ Experiment Parameters ]
Experiment Description= <none> 
Number_of_Regions_in_Experiment= 1 

Original_File_name= C:\alexesca\data\10182012_Au _4f_58nuetral+37_Mono220.xps 
Instrument= HP ESCA West
Date= 10-18-2012
Time=  17:18:14

[ Layer Parameters ]
Layer_Type= XPS

[ Region 1 Parameters ]
Region_Description = Au 4f Dithered Scan                
BEcenter(eV) = 93.000000
BEwidth(eV) = 10.000000
BEstep(eV) = 0.035937
Dwell_Time(sec) = 1.000000
N_o_scans = 1  
N_o_Channels = 278  
Scan_mode = 0  (DITHERED)

[ L= 1 R= 1 ]
BEcenter= 93.000  
BEwidth= -9.955  
Excitation= 1486.600
Time_p_channel= 256.000 
Size= 278
97.977   5.83000000e+02 
97.941   5.71000000e+02 
97.905   5.71000000e+02 
97.870   6.08000000e+02 
97.834   5.69000000e+02 
97.798   5.60000000e+02 
97.762   6.21000000e+02 
97.726   6.16000000e+02 
97.690   6.01000000e+02 
97.654   6.18000000e+02 
97.618   5.72000000e+02 
97.582   6.05000000e+02 
97.546   6.18000000e+02 
97.510   6.38000000e+02 
97.474   6.32000000e+02 
97.438   6.42000000e+02 
97.402   6.42000000e+02 
97.366   6.96000000e+02 
97.330   6.67000000e+02 
97.295   7.08000000e+02 
97.259   7.11000000e+02 
97.223   6.66000000e+02 
97.187   7.00000000e+02 
97.151   7.82000000e+02 
97.115   7.61000000e+02 
97.079   7.13000000e+02 
97.043   7.51000000e+02 
97.007   7.94000000e+02 
96.971   8.44000000e+02 
96.935   9.00000000e+02 
96.899   8.95000000e+02 
96.863   8.76000000e+02 
96.827   9.31000000e+02 
96.791   9.67000000e+02 
96.755   1.00600000e+03 
96.720   1.07400000e+03 
96.684   1.06800000e+03 
96.648   1.14400000e+03 
96.612   1.14500000e+03 
96.576   1.18000000e+03 
96.540   1.21500000e+03 
96.504   1.27800000e+03 
96.468   1.30400000e+03 
96.432   1.35000000e+03 
96.396   1.39000000e+03 
96.360   1.42500000e+03 
96.324   1.51300000e+03 
96.288   1.54700000e+03 
96.252   1.54600000e+03 
96.216   1.64000000e+03 
96.180   1.62400000e+03 
96.145   1.71900000e+03 
96.109   1.67300000e+03 
96.073   1.81500000e+03 
96.037   1.84100000e+03 
96.001   1.85100000e+03 
95.965   1.84100000e+03 
95.929   1.88900000e+03 
95.893   1.94000000e+03 
95.857   2.03900000e+03 
95.821   1.90900000e+03 
95.785   2.02400000e+03 
95.749   2.05500000e+03 
95.713   2.01000000e+03 
95.677   2.12500000e+03 
95.641   2.14300000e+03 
95.605   2.10600000e+03 
95.570   2.06400000e+03 
95.534   2.16500000e+03 
95.498   2.17200000e+03 
95.462   2.06700000e+03 
95.426   2.14900000e+03 
95.390   2.05600000e+03 
95.354   2.11400000e+03 
95.318   2.10900000e+03 
95.282   2.10200000e+03 
95.246   2.13300000e+03 
95.210   2.15400000e+03 
95.174   2.25200000e+03 
95.138   2.10200000e+03 
95.102   2.23300000e+03 
95.066   2.19300000e+03 
95.030   2.21100000e+03 
94.995   2.20200000e+03 
94.959   2.09700000e+03 
94.923   2.07100000e+03 
94.887   2.15000000e+03 
94.851   2.21200000e+03 
94.815   2.07500000e+03 
94.779   2.12900000e+03 
94.743   2.04900000e+03 
94.707   2.08200000e+03 
94.671   2.10600000e+03 
94.635   2.03500000e+03 
94.599   1.98400000e+03 
94.563   1.96900000e+03 
94.527   2.00600000e+03 
94.491   1.93600000e+03 
94.455   1.87700000e+03 
94.420   1.89000000e+03 
94.384   1.80800000e+03 
94.348   1.63700000e+03 
94.312   1.67300000e+03 
94.276   1.64100000e+03 
94.240   1.60800000e+03 
94.204   1.44900000e+03 
94.168   1.45000000e+03 
94.132   1.36200000e+03 
94.096   1.31900000e+03 
94.060   1.19200000e+03 
94.024   1.18100000e+03 
93.988   1.12600000e+03 
93.952   1.09900000e+03 
93.916   1.05400000e+03 
93.880   1.01700000e+03 
93.845   9.16000000e+02 
93.809   8.32000000e+02 
93.773   8.31000000e+02 
93.737   8.63000000e+02 
93.701   8.14000000e+02 
93.665   7.93000000e+02 
93.629   8.13000000e+02 
93.593   8.38000000e+02 
93.557   8.28000000e+02 
93.521   8.24000000e+02 
93.485   8.35000000e+02 
93.449   8.77000000e+02 
93.413   8.72000000e+02 
93.377   8.21000000e+02 
93.341   8.58000000e+02 
93.305   8.86000000e+02 
93.270   9.03000000e+02 
93.234   9.96000000e+02 
93.198   9.32000000e+02 
93.162   1.01300000e+03 
93.126   1.10600000e+03 
93.090   1.09100000e+03 
93.054   1.12600000e+03 
93.018   1.11200000e+03 
92.982   1.23100000e+03 
92.946   1.24000000e+03 
92.910   1.25400000e+03 
92.874   1.35000000e+03 
92.838   1.40900000e+03 
92.802   1.47900000e+03 
92.766   1.54200000e+03 
92.730   1.56400000e+03 
92.695   1.58200000e+03 
92.659   1.68200000e+03 
92.623   1.74000000e+03 
92.587   1.78900000e+03 
92.551   1.82600000e+03 
92.515   1.87000000e+03 
92.479   2.02300000e+03 
92.443   1.99000000e+03 
92.407   2.03200000e+03 
92.371   2.11400000e+03 
92.335   2.15600000e+03 
92.299   2.11600000e+03 
92.263   2.21900000e+03 
92.227   2.23000000e+03 
92.191   2.31000000e+03 
92.155   2.29100000e+03 
92.120   2.29800000e+03 
92.084   2.41800000e+03 
92.048   2.46700000e+03 
92.012   2.42500000e+03 
91.976   2.40000000e+03 
91.940   2.40500000e+03 
91.904   2.44000000e+03 
91.868   2.40800000e+03 
91.832   2.47500000e+03 
91.796   2.46900000e+03 
91.760   2.45000000e+03 
91.724   2.41400000e+03 
91.688   2.42600000e+03 
91.652   2.43500000e+03 
91.616   2.51900000e+03 
91.580   2.41400000e+03 
91.545   2.48600000e+03 
91.509   2.52600000e+03 
91.473   2.48800000e+03 
91.437   2.52500000e+03 
91.401   2.52400000e+03 
91.365   2.54100000e+03 
91.329   2.47600000e+03 
91.293   2.48300000e+03 
91.257   2.52500000e+03 
91.221   2.47000000e+03 
91.185   2.58100000e+03 
91.149   2.46400000e+03 
91.113   2.45900000e+03 
91.077   2.43100000e+03 
91.041   2.37100000e+03 
91.005   2.33100000e+03 
90.970   2.30500000e+03 
90.934   2.29000000e+03 
90.898   2.19600000e+03 
90.862   2.16100000e+03 
90.826   2.14100000e+03 
90.790   2.11600000e+03 
90.754   2.01500000e+03 
90.718   1.93900000e+03 
90.682   1.91300000e+03 
90.646   1.78600000e+03 
90.610   1.74300000e+03 
90.574   1.59000000e+03 
90.538   1.55700000e+03 
90.502   1.50900000e+03 
90.466   1.38200000e+03 
90.430   1.30900000e+03 
90.395   1.17500000e+03 
90.359   1.04600000e+03 
90.323   9.83000000e+02 
90.287   9.40000000e+02 
90.251   8.54000000e+02 
90.215   8.22000000e+02 
90.179   7.65000000e+02 
90.143   6.31000000e+02 
90.107   5.76000000e+02 
90.071   5.93000000e+02 
90.035   5.54000000e+02 
89.999   4.79000000e+02 
89.963   4.14000000e+02 
89.927   4.22000000e+02 
89.891   4.41000000e+02 
89.855   4.05000000e+02 
89.820   3.63000000e+02 
89.784   3.87000000e+02 
89.748   3.66000000e+02 
89.712   3.07000000e+02 
89.676   3.29000000e+02 
89.640   3.10000000e+02 
89.604   3.18000000e+02 
89.568   2.99000000e+02 
89.532   2.83000000e+02 
89.496   2.71000000e+02 
89.460   3.04000000e+02 
89.424   2.84000000e+02 
89.388   2.76000000e+02 
89.352   2.80000000e+02 
89.316   3.08000000e+02 
89.280   2.79000000e+02 
89.245   2.98000000e+02 
89.209   2.87000000e+02 
89.173   2.60000000e+02 
89.137   2.67000000e+02 
89.101   2.67000000e+02 
89.065   2.57000000e+02 
89.029   2.28000000e+02 
88.993   2.65000000e+02 
88.957   2.36000000e+02 
88.921   2.69000000e+02 
88.885   2.45000000e+02 
88.849   2.64000000e+02 
88.813   2.39000000e+02 
88.777   2.40000000e+02 
88.741   2.02000000e+02 
88.705   2.42000000e+02 
88.670   2.53000000e+02 
88.634   2.23000000e+02 
88.598   2.40000000e+02 
88.562   2.30000000e+02 
88.526   2.51000000e+02 
88.490   2.12000000e+02 
88.454   1.91000000e+02 
88.418   1.90000000e+02 
88.382   2.11000000e+02 
88.346   2.33000000e+02 
88.310   2.19000000e+02 
88.274   2.18000000e+02 
88.238   2.27000000e+02 
88.202   2.62000000e+02 
88.166   2.21000000e+02 
88.130   2.22000000e+02 
88.095   2.44000000e+02 
88.059   2.10000000e+02 
88.023   2.28000000e+02 

