EXPERIMENT FILE
Version = 2

[ Experiment Parameters ]
Experiment Description= <none> 
Number_of_Regions_in_Experiment= 1 

Original_File_name= C:\alexesca\data\10182012_Au _4f_58nuetral-8_Mono220.xps 
Instrument= HP ESCA West
Date= 10-18-2012
Time=  16:54:51

[ Layer Parameters ]
Layer_Type= XPS

[ Region 1 Parameters ]
Region_Description = Au 4f Dithered Scan                
BEcenter(eV) = 93.000000
BEwidth(eV) = 10.000000
BEstep(eV) = 0.035937
Dwell_Time(sec) = 1.000000
N_o_scans = 1  
N_o_Channels = 278  
Scan_mode = 0  (DITHERED)

[ L= 1 R= 1 ]
BEcenter= 93.000  
BEwidth= -9.955  
Excitation= 1486.600
Time_p_channel= 256.000 
Size= 278
97.977   2.47000000e+02 
97.941   2.70000000e+02 
97.905   2.28000000e+02 
97.870   2.69000000e+02 
97.834   2.63000000e+02 
97.798   2.54000000e+02 
97.762   2.64000000e+02 
97.726   2.85000000e+02 
97.690   2.63000000e+02 
97.654   2.63000000e+02 
97.618   2.45000000e+02 
97.582   2.31000000e+02 
97.546   3.05000000e+02 
97.510   3.04000000e+02 
97.474   2.74000000e+02 
97.438   2.92000000e+02 
97.402   2.72000000e+02 
97.366   2.95000000e+02 
97.330   2.83000000e+02 
97.295   2.78000000e+02 
97.259   2.62000000e+02 
97.223   2.81000000e+02 
97.187   2.87000000e+02 
97.151   2.78000000e+02 
97.115   2.64000000e+02 
97.079   2.97000000e+02 
97.043   3.09000000e+02 
97.007   3.00000000e+02 
96.971   3.22000000e+02 
96.935   3.04000000e+02 
96.899   3.43000000e+02 
96.863   2.89000000e+02 
96.827   3.43000000e+02 
96.791   3.32000000e+02 
96.755   3.35000000e+02 
96.720   3.82000000e+02 
96.684   3.80000000e+02 
96.648   3.78000000e+02 
96.612   3.92000000e+02 
96.576   3.80000000e+02 
96.540   4.22000000e+02 
96.504   4.14000000e+02 
96.468   4.34000000e+02 
96.432   4.49000000e+02 
96.396   4.33000000e+02 
96.360   4.62000000e+02 
96.324   4.74000000e+02 
96.288   4.97000000e+02 
96.252   5.31000000e+02 
96.216   5.49000000e+02 
96.180   5.63000000e+02 
96.145   5.59000000e+02 
96.109   6.30000000e+02 
96.073   6.03000000e+02 
96.037   6.07000000e+02 
96.001   6.78000000e+02 
95.965   7.32000000e+02 
95.929   7.20000000e+02 
95.893   7.25000000e+02 
95.857   7.57000000e+02 
95.821   7.78000000e+02 
95.785   8.15000000e+02 
95.749   8.39000000e+02 
95.713   8.74000000e+02 
95.677   8.88000000e+02 
95.641   9.42000000e+02 
95.605   1.00200000e+03 
95.570   1.02800000e+03 
95.534   1.00800000e+03 
95.498   1.00000000e+03 
95.462   1.17700000e+03 
95.426   1.10000000e+03 
95.390   1.25900000e+03 
95.354   1.23000000e+03 
95.318   1.16800000e+03 
95.282   1.26500000e+03 
95.246   1.33700000e+03 
95.210   1.36300000e+03 
95.174   1.40100000e+03 
95.138   1.40400000e+03 
95.102   1.40100000e+03 
95.066   1.45300000e+03 
95.030   1.38300000e+03 
94.995   1.36800000e+03 
94.959   1.32000000e+03 
94.923   1.39000000e+03 
94.887   1.26600000e+03 
94.851   1.28300000e+03 
94.815   1.17900000e+03 
94.779   1.13500000e+03 
94.743   1.15400000e+03 
94.707   1.03200000e+03 
94.671   9.06000000e+02 
94.635   9.22000000e+02 
94.599   8.72000000e+02 
94.563   8.08000000e+02 
94.527   6.38000000e+02 
94.491   6.77000000e+02 
94.455   5.83000000e+02 
94.420   5.87000000e+02 
94.384   5.56000000e+02 
94.348   5.01000000e+02 
94.312   4.42000000e+02 
94.276   4.34000000e+02 
94.240   4.38000000e+02 
94.204   4.18000000e+02 
94.168   3.68000000e+02 
94.132   3.30000000e+02 
94.096   3.48000000e+02 
94.060   3.62000000e+02 
94.024   3.15000000e+02 
93.988   3.10000000e+02 
93.952   2.85000000e+02 
93.916   3.10000000e+02 
93.880   3.14000000e+02 
93.845   2.77000000e+02 
93.809   2.89000000e+02 
93.773   3.03000000e+02 
93.737   2.95000000e+02 
93.701   2.94000000e+02 
93.665   2.80000000e+02 
93.629   3.00000000e+02 
93.593   2.93000000e+02 
93.557   2.61000000e+02 
93.521   2.85000000e+02 
93.485   3.08000000e+02 
93.449   2.97000000e+02 
93.413   2.64000000e+02 
93.377   3.14000000e+02 
93.341   3.23000000e+02 
93.305   3.21000000e+02 
93.270   3.09000000e+02 
93.234   3.50000000e+02 
93.198   3.65000000e+02 
93.162   3.46000000e+02 
93.126   3.12000000e+02 
93.090   3.80000000e+02 
93.054   3.62000000e+02 
93.018   4.02000000e+02 
92.982   3.67000000e+02 
92.946   3.89000000e+02 
92.910   4.36000000e+02 
92.874   4.30000000e+02 
92.838   4.54000000e+02 
92.802   4.45000000e+02 
92.766   4.86000000e+02 
92.730   4.63000000e+02 
92.695   4.80000000e+02 
92.659   4.90000000e+02 
92.623   5.66000000e+02 
92.587   6.00000000e+02 
92.551   5.79000000e+02 
92.515   6.16000000e+02 
92.479   6.19000000e+02 
92.443   6.38000000e+02 
92.407   6.45000000e+02 
92.371   7.06000000e+02 
92.335   7.51000000e+02 
92.299   7.24000000e+02 
92.263   8.05000000e+02 
92.227   8.44000000e+02 
92.191   8.42000000e+02 
92.155   8.99000000e+02 
92.120   9.59000000e+02 
92.084   9.72000000e+02 
92.048   9.83000000e+02 
92.012   1.02700000e+03 
91.976   1.07300000e+03 
91.940   1.17600000e+03 
91.904   1.19300000e+03 
91.868   1.24800000e+03 
91.832   1.23400000e+03 
91.796   1.29000000e+03 
91.760   1.40700000e+03 
91.724   1.37900000e+03 
91.688   1.41200000e+03 
91.652   1.45500000e+03 
91.616   1.57800000e+03 
91.580   1.59300000e+03 
91.545   1.67500000e+03 
91.509   1.61800000e+03 
91.473   1.65000000e+03 
91.437   1.65400000e+03 
91.401   1.60100000e+03 
91.365   1.62800000e+03 
91.329   1.68900000e+03 
91.293   1.68700000e+03 
91.257   1.61700000e+03 
91.221   1.56800000e+03 
91.185   1.52900000e+03 
91.149   1.42700000e+03 
91.113   1.42500000e+03 
91.077   1.27300000e+03 
91.041   1.20400000e+03 
91.005   1.10500000e+03 
90.970   1.01700000e+03 
90.934   9.27000000e+02 
90.898   8.48000000e+02 
90.862   7.31000000e+02 
90.826   7.01000000e+02 
90.790   6.24000000e+02 
90.754   5.61000000e+02 
90.718   5.14000000e+02 
90.682   4.54000000e+02 
90.646   4.27000000e+02 
90.610   3.82000000e+02 
90.574   3.55000000e+02 
90.538   3.35000000e+02 
90.502   3.45000000e+02 
90.466   3.10000000e+02 
90.430   2.97000000e+02 
90.395   2.47000000e+02 
90.359   2.41000000e+02 
90.323   2.49000000e+02 
90.287   2.27000000e+02 
90.251   2.39000000e+02 
90.215   1.94000000e+02 
90.179   1.93000000e+02 
90.143   1.64000000e+02 
90.107   1.92000000e+02 
90.071   1.53000000e+02 
90.035   1.66000000e+02 
89.999   1.74000000e+02 
89.963   1.61000000e+02 
89.927   1.79000000e+02 
89.891   1.50000000e+02 
89.855   1.42000000e+02 
89.820   1.37000000e+02 
89.784   1.63000000e+02 
89.748   1.59000000e+02 
89.712   1.67000000e+02 
89.676   1.51000000e+02 
89.640   1.32000000e+02 
89.604   1.53000000e+02 
89.568   1.36000000e+02 
89.532   1.25000000e+02 
89.496   1.55000000e+02 
89.460   1.36000000e+02 
89.424   1.27000000e+02 
89.388   1.05000000e+02 
89.352   1.30000000e+02 
89.316   1.39000000e+02 
89.280   1.07000000e+02 
89.245   1.24000000e+02 
89.209   1.29000000e+02 
89.173   1.39000000e+02 
89.137   1.10000000e+02 
89.101   1.29000000e+02 
89.065   1.13000000e+02 
89.029   1.14000000e+02 
88.993   1.22000000e+02 
88.957   1.19000000e+02 
88.921   1.27000000e+02 
88.885   1.10000000e+02 
88.849   1.17000000e+02 
88.813   1.41000000e+02 
88.777   1.20000000e+02 
88.741   1.00000000e+02 
88.705   1.33000000e+02 
88.670   1.26000000e+02 
88.634   9.90000000e+01 
88.598   1.23000000e+02 
88.562   1.12000000e+02 
88.526   1.33000000e+02 
88.490   1.28000000e+02 
88.454   1.05000000e+02 
88.418   1.16000000e+02 
88.382   1.02000000e+02 
88.346   1.11000000e+02 
88.310   1.27000000e+02 
88.274   1.10000000e+02 
88.238   1.07000000e+02 
88.202   1.02000000e+02 
88.166   1.12000000e+02 
88.130   1.02000000e+02 
88.095   9.60000000e+01 
88.059   9.40000000e+01 
88.023   9.70000000e+01 

