EXPERIMENT FILE
Version = 2

[ Experiment Parameters ]
Experiment Description= <none> 
Number_of_Regions_in_Experiment= 1 

Original_File_name= C:\alexesca\data\10192012_Au _4f_59nuetral+11_Mono235.xps 
Instrument= HP ESCA West
Date= 10-19-2012
Time=  16:30:40

[ Layer Parameters ]
Layer_Type= XPS

[ Region 1 Parameters ]
Region_Description = Au 4f Dithered Scan                
BEcenter(eV) = 93.000000
BEwidth(eV) = 10.000000
BEstep(eV) = 0.035937
Dwell_Time(sec) = 1.000000
N_o_scans = 1  
N_o_Channels = 278  
Scan_mode = 0  (DITHERED)

[ L= 1 R= 1 ]
BEcenter= 93.000  
BEwidth= -9.955  
Excitation= 1486.600
Time_p_channel= 256.000 
Size= 278
97.977   3.90000000e+02 
97.941   3.58000000e+02 
97.905   3.84000000e+02 
97.870   3.82000000e+02 
97.834   3.80000000e+02 
97.798   4.09000000e+02 
97.762   4.04000000e+02 
97.726   3.64000000e+02 
97.690   3.93000000e+02 
97.654   4.00000000e+02 
97.618   3.87000000e+02 
97.582   3.88000000e+02 
97.546   4.08000000e+02 
97.510   3.73000000e+02 
97.474   4.73000000e+02 
97.438   4.60000000e+02 
97.402   4.89000000e+02 
97.366   4.25000000e+02 
97.330   4.36000000e+02 
97.295   4.75000000e+02 
97.259   5.07000000e+02 
97.223   5.00000000e+02 
97.187   4.72000000e+02 
97.151   4.95000000e+02 
97.115   5.10000000e+02 
97.079   5.36000000e+02 
97.043   5.61000000e+02 
97.007   5.55000000e+02 
96.971   6.19000000e+02 
96.935   6.30000000e+02 
96.899   6.11000000e+02 
96.863   6.21000000e+02 
96.827   6.92000000e+02 
96.791   6.51000000e+02 
96.755   7.24000000e+02 
96.720   7.78000000e+02 
96.684   7.49000000e+02 
96.648   7.61000000e+02 
96.612   8.40000000e+02 
96.576   8.35000000e+02 
96.540   8.72000000e+02 
96.504   9.24000000e+02 
96.468   9.71000000e+02 
96.432   9.84000000e+02 
96.396   9.97000000e+02 
96.360   1.07400000e+03 
96.324   1.07900000e+03 
96.288   1.15800000e+03 
96.252   1.21800000e+03 
96.216   1.25400000e+03 
96.180   1.21500000e+03 
96.145   1.24800000e+03 
96.109   1.27400000e+03 
96.073   1.33300000e+03 
96.037   1.37300000e+03 
96.001   1.40200000e+03 
95.965   1.55700000e+03 
95.929   1.48900000e+03 
95.893   1.52700000e+03 
95.857   1.58100000e+03 
95.821   1.64400000e+03 
95.785   1.64200000e+03 
95.749   1.71100000e+03 
95.713   1.70200000e+03 
95.677   1.67400000e+03 
95.641   1.76100000e+03 
95.605   1.76100000e+03 
95.570   1.79900000e+03 
95.534   1.76700000e+03 
95.498   1.77700000e+03 
95.462   1.82500000e+03 
95.426   1.79100000e+03 
95.390   1.80300000e+03 
95.354   1.76300000e+03 
95.318   1.79500000e+03 
95.282   1.72100000e+03 
95.246   1.60600000e+03 
95.210   1.63600000e+03 
95.174   1.70000000e+03 
95.138   1.62700000e+03 
95.102   1.53000000e+03 
95.066   1.50000000e+03 
95.030   1.45100000e+03 
94.995   1.44900000e+03 
94.959   1.38200000e+03 
94.923   1.28900000e+03 
94.887   1.23700000e+03 
94.851   1.14300000e+03 
94.815   1.16500000e+03 
94.779   1.07200000e+03 
94.743   1.03400000e+03 
94.707   1.04600000e+03 
94.671   9.39000000e+02 
94.635   9.40000000e+02 
94.599   8.32000000e+02 
94.563   7.98000000e+02 
94.527   7.69000000e+02 
94.491   8.05000000e+02 
94.455   6.84000000e+02 
94.420   6.28000000e+02 
94.384   6.13000000e+02 
94.348   6.30000000e+02 
94.312   6.02000000e+02 
94.276   5.42000000e+02 
94.240   5.51000000e+02 
94.204   5.30000000e+02 
94.168   5.13000000e+02 
94.132   5.18000000e+02 
94.096   4.61000000e+02 
94.060   4.48000000e+02 
94.024   4.99000000e+02 
93.988   4.76000000e+02 
93.952   4.64000000e+02 
93.916   4.70000000e+02 
93.880   4.24000000e+02 
93.845   4.65000000e+02 
93.809   4.46000000e+02 
93.773   4.53000000e+02 
93.737   4.29000000e+02 
93.701   4.54000000e+02 
93.665   4.61000000e+02 
93.629   4.84000000e+02 
93.593   4.84000000e+02 
93.557   4.67000000e+02 
93.521   5.12000000e+02 
93.485   4.57000000e+02 
93.449   5.13000000e+02 
93.413   5.83000000e+02 
93.377   5.68000000e+02 
93.341   5.63000000e+02 
93.305   5.62000000e+02 
93.270   6.55000000e+02 
93.234   6.30000000e+02 
93.198   6.26000000e+02 
93.162   7.03000000e+02 
93.126   7.59000000e+02 
93.090   7.44000000e+02 
93.054   7.86000000e+02 
93.018   8.25000000e+02 
92.982   8.56000000e+02 
92.946   9.82000000e+02 
92.910   9.59000000e+02 
92.874   9.37000000e+02 
92.838   1.05400000e+03 
92.802   1.07300000e+03 
92.766   1.09400000e+03 
92.730   1.14200000e+03 
92.695   1.21500000e+03 
92.659   1.31800000e+03 
92.623   1.28100000e+03 
92.587   1.31900000e+03 
92.551   1.40900000e+03 
92.515   1.46600000e+03 
92.479   1.43100000e+03 
92.443   1.55300000e+03 
92.407   1.57200000e+03 
92.371   1.68100000e+03 
92.335   1.72100000e+03 
92.299   1.77000000e+03 
92.263   1.75700000e+03 
92.227   1.80300000e+03 
92.191   1.81400000e+03 
92.155   1.96200000e+03 
92.120   1.89000000e+03 
92.084   1.99200000e+03 
92.048   2.05400000e+03 
92.012   2.00100000e+03 
91.976   2.11500000e+03 
91.940   2.08200000e+03 
91.904   2.12600000e+03 
91.868   2.12200000e+03 
91.832   2.06600000e+03 
91.796   2.16200000e+03 
91.760   2.15700000e+03 
91.724   2.06200000e+03 
91.688   2.12600000e+03 
91.652   2.03900000e+03 
91.616   1.98900000e+03 
91.580   2.00800000e+03 
91.545   1.93500000e+03 
91.509   1.90100000e+03 
91.473   1.81800000e+03 
91.437   1.70400000e+03 
91.401   1.71500000e+03 
91.365   1.77300000e+03 
91.329   1.61800000e+03 
91.293   1.55900000e+03 
91.257   1.47400000e+03 
91.221   1.45200000e+03 
91.185   1.36200000e+03 
91.149   1.28200000e+03 
91.113   1.20600000e+03 
91.077   1.12700000e+03 
91.041   1.00500000e+03 
91.005   1.01700000e+03 
90.970   9.42000000e+02 
90.934   7.87000000e+02 
90.898   8.42000000e+02 
90.862   7.30000000e+02 
90.826   6.88000000e+02 
90.790   6.38000000e+02 
90.754   5.55000000e+02 
90.718   5.73000000e+02 
90.682   5.05000000e+02 
90.646   4.69000000e+02 
90.610   4.53000000e+02 
90.574   4.01000000e+02 
90.538   3.77000000e+02 
90.502   3.63000000e+02 
90.466   3.32000000e+02 
90.430   2.99000000e+02 
90.395   3.07000000e+02 
90.359   2.92000000e+02 
90.323   2.73000000e+02 
90.287   3.08000000e+02 
90.251   2.58000000e+02 
90.215   2.38000000e+02 
90.179   2.34000000e+02 
90.143   2.52000000e+02 
90.107   2.51000000e+02 
90.071   2.43000000e+02 
90.035   2.19000000e+02 
89.999   1.98000000e+02 
89.963   2.08000000e+02 
89.927   1.97000000e+02 
89.891   1.99000000e+02 
89.855   2.12000000e+02 
89.820   2.01000000e+02 
89.784   2.14000000e+02 
89.748   1.98000000e+02 
89.712   1.84000000e+02 
89.676   2.24000000e+02 
89.640   1.78000000e+02 
89.604   1.64000000e+02 
89.568   1.53000000e+02 
89.532   1.74000000e+02 
89.496   1.67000000e+02 
89.460   1.90000000e+02 
89.424   1.49000000e+02 
89.388   1.83000000e+02 
89.352   1.58000000e+02 
89.316   1.81000000e+02 
89.280   1.44000000e+02 
89.245   1.62000000e+02 
89.209   1.67000000e+02 
89.173   1.57000000e+02 
89.137   1.51000000e+02 
89.101   1.60000000e+02 
89.065   1.53000000e+02 
89.029   1.54000000e+02 
88.993   1.54000000e+02 
88.957   1.53000000e+02 
88.921   1.53000000e+02 
88.885   1.49000000e+02 
88.849   1.59000000e+02 
88.813   1.64000000e+02 
88.777   1.72000000e+02 
88.741   1.40000000e+02 
88.705   1.52000000e+02 
88.670   1.60000000e+02 
88.634   1.53000000e+02 
88.598   1.31000000e+02 
88.562   1.55000000e+02 
88.526   1.41000000e+02 
88.490   1.56000000e+02 
88.454   1.42000000e+02 
88.418   1.37000000e+02 
88.382   1.47000000e+02 
88.346   1.36000000e+02 
88.310   1.54000000e+02 
88.274   1.50000000e+02 
88.238   1.55000000e+02 
88.202   1.22000000e+02 
88.166   1.36000000e+02 
88.130   1.44000000e+02 
88.095   1.61000000e+02 
88.059   1.36000000e+02 
88.023   1.68000000e+02 

