EXPERIMENT FILE
Version = 2

[ Experiment Parameters ]
Experiment Description= <none> 
Number_of_Regions_in_Experiment= 1 

Original_File_name= C:\alexesca\data\10192012_Au _4f_59nuetral+36_Mono235.xps 
Instrument= HP ESCA West
Date= 10-19-2012
Time=  16:59:40

[ Layer Parameters ]
Layer_Type= XPS

[ Region 1 Parameters ]
Region_Description = Au 4f Dithered Scan                
BEcenter(eV) = 93.000000
BEwidth(eV) = 10.000000
BEstep(eV) = 0.035937
Dwell_Time(sec) = 1.000000
N_o_scans = 1  
N_o_Channels = 278  
Scan_mode = 0  (DITHERED)

[ L= 1 R= 1 ]
BEcenter= 93.000  
BEwidth= -9.955  
Excitation= 1486.600
Time_p_channel= 256.000 
Size= 278
97.977   4.81000000e+02 
97.941   5.04000000e+02 
97.905   5.13000000e+02 
97.870   4.70000000e+02 
97.834   5.22000000e+02 
97.798   4.88000000e+02 
97.762   4.72000000e+02 
97.726   5.19000000e+02 
97.690   5.08000000e+02 
97.654   5.35000000e+02 
97.618   5.47000000e+02 
97.582   5.23000000e+02 
97.546   5.29000000e+02 
97.510   5.32000000e+02 
97.474   5.39000000e+02 
97.438   5.94000000e+02 
97.402   6.04000000e+02 
97.366   5.63000000e+02 
97.330   6.37000000e+02 
97.295   6.13000000e+02 
97.259   6.02000000e+02 
97.223   6.17000000e+02 
97.187   7.02000000e+02 
97.151   7.19000000e+02 
97.115   6.72000000e+02 
97.079   6.90000000e+02 
97.043   7.51000000e+02 
97.007   8.19000000e+02 
96.971   8.06000000e+02 
96.935   7.83000000e+02 
96.899   8.51000000e+02 
96.863   8.25000000e+02 
96.827   9.14000000e+02 
96.791   9.58000000e+02 
96.755   1.04900000e+03 
96.720   1.08900000e+03 
96.684   1.05200000e+03 
96.648   1.13700000e+03 
96.612   1.13200000e+03 
96.576   1.14700000e+03 
96.540   1.21300000e+03 
96.504   1.29100000e+03 
96.468   1.32000000e+03 
96.432   1.38300000e+03 
96.396   1.42200000e+03 
96.360   1.44900000e+03 
96.324   1.52900000e+03 
96.288   1.56900000e+03 
96.252   1.52500000e+03 
96.216   1.66500000e+03 
96.180   1.60900000e+03 
96.145   1.74000000e+03 
96.109   1.73000000e+03 
96.073   1.74400000e+03 
96.037   1.82900000e+03 
96.001   1.80300000e+03 
95.965   1.86300000e+03 
95.929   1.92700000e+03 
95.893   1.85400000e+03 
95.857   1.88600000e+03 
95.821   1.89000000e+03 
95.785   1.93200000e+03 
95.749   1.90000000e+03 
95.713   1.89500000e+03 
95.677   1.92600000e+03 
95.641   1.98000000e+03 
95.605   1.96400000e+03 
95.570   1.86100000e+03 
95.534   2.00100000e+03 
95.498   1.88100000e+03 
95.462   1.88300000e+03 
95.426   1.88200000e+03 
95.390   1.92900000e+03 
95.354   1.84500000e+03 
95.318   1.78800000e+03 
95.282   1.79500000e+03 
95.246   1.82600000e+03 
95.210   1.72600000e+03 
95.174   1.80000000e+03 
95.138   1.70200000e+03 
95.102   1.73600000e+03 
95.066   1.73000000e+03 
95.030   1.78800000e+03 
94.995   1.70600000e+03 
94.959   1.69300000e+03 
94.923   1.56300000e+03 
94.887   1.57200000e+03 
94.851   1.65600000e+03 
94.815   1.65800000e+03 
94.779   1.57800000e+03 
94.743   1.52800000e+03 
94.707   1.47600000e+03 
94.671   1.47500000e+03 
94.635   1.41500000e+03 
94.599   1.34200000e+03 
94.563   1.31700000e+03 
94.527   1.34100000e+03 
94.491   1.26000000e+03 
94.455   1.24700000e+03 
94.420   1.18900000e+03 
94.384   1.14500000e+03 
94.348   1.14700000e+03 
94.312   1.03300000e+03 
94.276   1.03000000e+03 
94.240   1.05500000e+03 
94.204   9.62000000e+02 
94.168   9.73000000e+02 
94.132   8.61000000e+02 
94.096   8.31000000e+02 
94.060   8.49000000e+02 
94.024   7.92000000e+02 
93.988   7.10000000e+02 
93.952   7.34000000e+02 
93.916   6.62000000e+02 
93.880   6.64000000e+02 
93.845   7.11000000e+02 
93.809   6.47000000e+02 
93.773   6.29000000e+02 
93.737   6.96000000e+02 
93.701   6.64000000e+02 
93.665   6.91000000e+02 
93.629   6.82000000e+02 
93.593   6.75000000e+02 
93.557   7.02000000e+02 
93.521   6.62000000e+02 
93.485   7.30000000e+02 
93.449   7.39000000e+02 
93.413   7.58000000e+02 
93.377   7.96000000e+02 
93.341   8.26000000e+02 
93.305   8.49000000e+02 
93.270   8.55000000e+02 
93.234   9.40000000e+02 
93.198   9.51000000e+02 
93.162   9.88000000e+02 
93.126   1.02500000e+03 
93.090   1.14600000e+03 
93.054   1.16900000e+03 
93.018   1.20700000e+03 
92.982   1.28400000e+03 
92.946   1.34400000e+03 
92.910   1.25700000e+03 
92.874   1.34300000e+03 
92.838   1.43400000e+03 
92.802   1.50000000e+03 
92.766   1.50600000e+03 
92.730   1.56100000e+03 
92.695   1.68400000e+03 
92.659   1.75400000e+03 
92.623   1.76600000e+03 
92.587   1.84300000e+03 
92.551   1.90400000e+03 
92.515   1.95000000e+03 
92.479   2.02200000e+03 
92.443   2.07500000e+03 
92.407   2.05700000e+03 
92.371   2.13700000e+03 
92.335   2.12700000e+03 
92.299   2.08000000e+03 
92.263   2.16900000e+03 
92.227   2.26600000e+03 
92.191   2.18800000e+03 
92.155   2.27500000e+03 
92.120   2.19800000e+03 
92.084   2.18500000e+03 
92.048   2.18600000e+03 
92.012   2.25700000e+03 
91.976   2.19400000e+03 
91.940   2.20100000e+03 
91.904   2.18500000e+03 
91.868   2.21500000e+03 
91.832   2.15200000e+03 
91.796   2.07500000e+03 
91.760   2.18800000e+03 
91.724   2.06800000e+03 
91.688   2.08100000e+03 
91.652   2.14500000e+03 
91.616   2.07900000e+03 
91.580   2.04700000e+03 
91.545   2.01400000e+03 
91.509   1.98400000e+03 
91.473   1.94800000e+03 
91.437   1.94200000e+03 
91.401   1.90900000e+03 
91.365   1.94300000e+03 
91.329   1.89200000e+03 
91.293   1.90000000e+03 
91.257   1.84800000e+03 
91.221   1.83900000e+03 
91.185   1.86700000e+03 
91.149   1.76200000e+03 
91.113   1.68700000e+03 
91.077   1.67500000e+03 
91.041   1.65100000e+03 
91.005   1.59100000e+03 
90.970   1.53500000e+03 
90.934   1.52200000e+03 
90.898   1.47000000e+03 
90.862   1.37300000e+03 
90.826   1.28700000e+03 
90.790   1.33900000e+03 
90.754   1.22200000e+03 
90.718   1.18500000e+03 
90.682   1.12500000e+03 
90.646   9.91000000e+02 
90.610   9.25000000e+02 
90.574   9.92000000e+02 
90.538   8.82000000e+02 
90.502   7.95000000e+02 
90.466   7.47000000e+02 
90.430   7.05000000e+02 
90.395   6.55000000e+02 
90.359   5.89000000e+02 
90.323   5.50000000e+02 
90.287   5.07000000e+02 
90.251   4.79000000e+02 
90.215   4.48000000e+02 
90.179   4.19000000e+02 
90.143   4.03000000e+02 
90.107   3.52000000e+02 
90.071   3.69000000e+02 
90.035   2.99000000e+02 
89.999   3.24000000e+02 
89.963   2.87000000e+02 
89.927   2.97000000e+02 
89.891   2.81000000e+02 
89.855   2.66000000e+02 
89.820   2.76000000e+02 
89.784   2.69000000e+02 
89.748   2.52000000e+02 
89.712   2.51000000e+02 
89.676   2.45000000e+02 
89.640   2.52000000e+02 
89.604   2.27000000e+02 
89.568   2.48000000e+02 
89.532   2.54000000e+02 
89.496   2.13000000e+02 
89.460   2.14000000e+02 
89.424   2.16000000e+02 
89.388   2.03000000e+02 
89.352   2.07000000e+02 
89.316   2.20000000e+02 
89.280   2.14000000e+02 
89.245   2.09000000e+02 
89.209   1.92000000e+02 
89.173   2.15000000e+02 
89.137   2.03000000e+02 
89.101   2.23000000e+02 
89.065   1.98000000e+02 
89.029   1.77000000e+02 
88.993   1.83000000e+02 
88.957   1.95000000e+02 
88.921   2.07000000e+02 
88.885   1.86000000e+02 
88.849   1.86000000e+02 
88.813   2.04000000e+02 
88.777   1.94000000e+02 
88.741   2.06000000e+02 
88.705   1.88000000e+02 
88.670   1.93000000e+02 
88.634   1.94000000e+02 
88.598   1.83000000e+02 
88.562   1.85000000e+02 
88.526   1.78000000e+02 
88.490   1.81000000e+02 
88.454   1.73000000e+02 
88.418   1.80000000e+02 
88.382   1.61000000e+02 
88.346   1.85000000e+02 
88.310   1.73000000e+02 
88.274   1.78000000e+02 
88.238   1.72000000e+02 
88.202   1.97000000e+02 
88.166   1.77000000e+02 
88.130   2.15000000e+02 
88.095   1.51000000e+02 
88.059   2.01000000e+02 
88.023   1.64000000e+02 

