EXPERIMENT FILE
Version = 2

[ Experiment Parameters ]
Experiment Description= <none> 
Number_of_Regions_in_Experiment= 1 

Original_File_name= C:\alexesca\data\10192012_Au _4f_59nuetral-9_Mono220.xps 
Instrument= HP ESCA West
Date= 10-19-2012
Time=  12:32:30

[ Layer Parameters ]
Layer_Type= XPS

[ Region 1 Parameters ]
Region_Description = Au 4f Dithered Scan                
BEcenter(eV) = 93.000000
BEwidth(eV) = 10.000000
BEstep(eV) = 0.035937
Dwell_Time(sec) = 1.000000
N_o_scans = 1  
N_o_Channels = 278  
Scan_mode = 0  (DITHERED)

[ L= 1 R= 1 ]
BEcenter= 93.000  
BEwidth= -9.955  
Excitation= 1486.600
Time_p_channel= 256.000 
Size= 278
97.977   2.58000000e+02 
97.941   2.58000000e+02 
97.905   2.67000000e+02 
97.870   2.43000000e+02 
97.834   2.67000000e+02 
97.798   2.52000000e+02 
97.762   2.84000000e+02 
97.726   2.84000000e+02 
97.690   2.39000000e+02 
97.654   2.97000000e+02 
97.618   2.49000000e+02 
97.582   2.63000000e+02 
97.546   2.34000000e+02 
97.510   2.56000000e+02 
97.474   2.82000000e+02 
97.438   2.55000000e+02 
97.402   2.52000000e+02 
97.366   2.85000000e+02 
97.330   2.88000000e+02 
97.295   2.70000000e+02 
97.259   2.60000000e+02 
97.223   2.96000000e+02 
97.187   2.66000000e+02 
97.151   2.72000000e+02 
97.115   2.64000000e+02 
97.079   2.71000000e+02 
97.043   2.79000000e+02 
97.007   3.18000000e+02 
96.971   3.04000000e+02 
96.935   3.25000000e+02 
96.899   2.90000000e+02 
96.863   2.93000000e+02 
96.827   3.37000000e+02 
96.791   3.47000000e+02 
96.755   3.27000000e+02 
96.720   3.69000000e+02 
96.684   3.74000000e+02 
96.648   3.55000000e+02 
96.612   3.78000000e+02 
96.576   3.72000000e+02 
96.540   3.84000000e+02 
96.504   4.12000000e+02 
96.468   3.94000000e+02 
96.432   4.07000000e+02 
96.396   4.49000000e+02 
96.360   4.61000000e+02 
96.324   4.93000000e+02 
96.288   4.89000000e+02 
96.252   4.49000000e+02 
96.216   4.93000000e+02 
96.180   5.61000000e+02 
96.145   5.63000000e+02 
96.109   5.58000000e+02 
96.073   5.62000000e+02 
96.037   5.98000000e+02 
96.001   6.38000000e+02 
95.965   6.44000000e+02 
95.929   6.53000000e+02 
95.893   6.88000000e+02 
95.857   7.31000000e+02 
95.821   7.58000000e+02 
95.785   7.77000000e+02 
95.749   7.80000000e+02 
95.713   8.50000000e+02 
95.677   8.26000000e+02 
95.641   9.27000000e+02 
95.605   9.79000000e+02 
95.570   9.32000000e+02 
95.534   9.91000000e+02 
95.498   1.07300000e+03 
95.462   1.09700000e+03 
95.426   1.08700000e+03 
95.390   1.10700000e+03 
95.354   1.19100000e+03 
95.318   1.20500000e+03 
95.282   1.22900000e+03 
95.246   1.22400000e+03 
95.210   1.28500000e+03 
95.174   1.36200000e+03 
95.138   1.33300000e+03 
95.102   1.40000000e+03 
95.066   1.33700000e+03 
95.030   1.31200000e+03 
94.995   1.28100000e+03 
94.959   1.32000000e+03 
94.923   1.31900000e+03 
94.887   1.31800000e+03 
94.851   1.29300000e+03 
94.815   1.24400000e+03 
94.779   1.14800000e+03 
94.743   1.10200000e+03 
94.707   1.04000000e+03 
94.671   1.05300000e+03 
94.635   8.96000000e+02 
94.599   8.77000000e+02 
94.563   8.27000000e+02 
94.527   7.37000000e+02 
94.491   7.03000000e+02 
94.455   6.40000000e+02 
94.420   5.42000000e+02 
94.384   5.21000000e+02 
94.348   5.00000000e+02 
94.312   4.38000000e+02 
94.276   4.43000000e+02 
94.240   4.07000000e+02 
94.204   4.18000000e+02 
94.168   3.69000000e+02 
94.132   3.71000000e+02 
94.096   3.89000000e+02 
94.060   3.30000000e+02 
94.024   3.35000000e+02 
93.988   3.14000000e+02 
93.952   3.15000000e+02 
93.916   3.03000000e+02 
93.880   3.09000000e+02 
93.845   2.88000000e+02 
93.809   2.95000000e+02 
93.773   2.67000000e+02 
93.737   2.62000000e+02 
93.701   3.06000000e+02 
93.665   2.70000000e+02 
93.629   3.13000000e+02 
93.593   2.92000000e+02 
93.557   2.82000000e+02 
93.521   2.73000000e+02 
93.485   2.75000000e+02 
93.449   3.13000000e+02 
93.413   2.94000000e+02 
93.377   2.75000000e+02 
93.341   3.05000000e+02 
93.305   2.79000000e+02 
93.270   3.14000000e+02 
93.234   3.23000000e+02 
93.198   3.25000000e+02 
93.162   3.26000000e+02 
93.126   3.74000000e+02 
93.090   3.71000000e+02 
93.054   3.19000000e+02 
93.018   3.74000000e+02 
92.982   3.65000000e+02 
92.946   3.64000000e+02 
92.910   3.80000000e+02 
92.874   3.85000000e+02 
92.838   4.22000000e+02 
92.802   4.10000000e+02 
92.766   3.95000000e+02 
92.730   4.43000000e+02 
92.695   4.63000000e+02 
92.659   5.12000000e+02 
92.623   5.04000000e+02 
92.587   5.33000000e+02 
92.551   5.55000000e+02 
92.515   5.48000000e+02 
92.479   5.80000000e+02 
92.443   6.62000000e+02 
92.407   6.42000000e+02 
92.371   6.16000000e+02 
92.335   7.20000000e+02 
92.299   7.10000000e+02 
92.263   7.51000000e+02 
92.227   7.67000000e+02 
92.191   8.28000000e+02 
92.155   8.85000000e+02 
92.120   8.78000000e+02 
92.084   8.64000000e+02 
92.048   9.23000000e+02 
92.012   9.86000000e+02 
91.976   1.04500000e+03 
91.940   1.07200000e+03 
91.904   1.12400000e+03 
91.868   1.15100000e+03 
91.832   1.19000000e+03 
91.796   1.21800000e+03 
91.760   1.29200000e+03 
91.724   1.28000000e+03 
91.688   1.43400000e+03 
91.652   1.40200000e+03 
91.616   1.47300000e+03 
91.580   1.54900000e+03 
91.545   1.56100000e+03 
91.509   1.56700000e+03 
91.473   1.65800000e+03 
91.437   1.67100000e+03 
91.401   1.61900000e+03 
91.365   1.65700000e+03 
91.329   1.62300000e+03 
91.293   1.60100000e+03 
91.257   1.58700000e+03 
91.221   1.56000000e+03 
91.185   1.54700000e+03 
91.149   1.45200000e+03 
91.113   1.40400000e+03 
91.077   1.34700000e+03 
91.041   1.25900000e+03 
91.005   1.19700000e+03 
90.970   1.01700000e+03 
90.934   9.56000000e+02 
90.898   8.36000000e+02 
90.862   7.44000000e+02 
90.826   7.10000000e+02 
90.790   6.48000000e+02 
90.754   5.73000000e+02 
90.718   5.32000000e+02 
90.682   5.35000000e+02 
90.646   4.28000000e+02 
90.610   4.04000000e+02 
90.574   3.80000000e+02 
90.538   3.49000000e+02 
90.502   3.18000000e+02 
90.466   2.93000000e+02 
90.430   2.20000000e+02 
90.395   2.69000000e+02 
90.359   2.20000000e+02 
90.323   2.22000000e+02 
90.287   2.26000000e+02 
90.251   2.07000000e+02 
90.215   2.13000000e+02 
90.179   2.20000000e+02 
90.143   1.73000000e+02 
90.107   1.92000000e+02 
90.071   1.75000000e+02 
90.035   2.02000000e+02 
89.999   1.68000000e+02 
89.963   1.46000000e+02 
89.927   1.65000000e+02 
89.891   1.41000000e+02 
89.855   1.51000000e+02 
89.820   1.67000000e+02 
89.784   1.57000000e+02 
89.748   1.27000000e+02 
89.712   1.22000000e+02 
89.676   1.36000000e+02 
89.640   1.44000000e+02 
89.604   1.39000000e+02 
89.568   1.37000000e+02 
89.532   1.31000000e+02 
89.496   1.50000000e+02 
89.460   1.20000000e+02 
89.424   1.32000000e+02 
89.388   1.39000000e+02 
89.352   1.21000000e+02 
89.316   1.18000000e+02 
89.280   1.29000000e+02 
89.245   1.34000000e+02 
89.209   1.21000000e+02 
89.173   1.50000000e+02 
89.137   1.12000000e+02 
89.101   1.29000000e+02 
89.065   1.20000000e+02 
89.029   1.01000000e+02 
88.993   1.12000000e+02 
88.957   1.34000000e+02 
88.921   1.22000000e+02 
88.885   1.23000000e+02 
88.849   1.03000000e+02 
88.813   9.50000000e+01 
88.777   1.00000000e+02 
88.741   1.05000000e+02 
88.705   1.07000000e+02 
88.670   1.22000000e+02 
88.634   9.30000000e+01 
88.598   8.70000000e+01 
88.562   9.50000000e+01 
88.526   9.20000000e+01 
88.490   1.19000000e+02 
88.454   1.25000000e+02 
88.418   1.11000000e+02 
88.382   1.02000000e+02 
88.346   9.90000000e+01 
88.310   1.00000000e+02 
88.274   1.12000000e+02 
88.238   1.10000000e+02 
88.202   8.80000000e+01 
88.166   1.17000000e+02 
88.130   1.17000000e+02 
88.095   1.00000000e+02 
88.059   1.09000000e+02 
88.023   9.50000000e+01 

