EXPERIMENT FILE
Version = 2

[ Experiment Parameters ]
Experiment Description= <none> 
Number_of_Regions_in_Experiment= 1 

Original_File_name= C:\alexesca\data\10192012_Au _4f_59nuetral+11_Mono220.xps 
Instrument= HP ESCA West
Date= 10-19-2012
Time=  12:43:34

[ Layer Parameters ]
Layer_Type= XPS

[ Region 1 Parameters ]
Region_Description = Au 4f Dithered Scan                
BEcenter(eV) = 93.000000
BEwidth(eV) = 10.000000
BEstep(eV) = 0.035937
Dwell_Time(sec) = 1.000000
N_o_scans = 1  
N_o_Channels = 278  
Scan_mode = 0  (DITHERED)

[ L= 1 R= 1 ]
BEcenter= 93.000  
BEwidth= -9.955  
Excitation= 1486.600
Time_p_channel= 256.000 
Size= 278
97.977   4.28000000e+02 
97.941   4.76000000e+02 
97.905   4.30000000e+02 
97.870   4.32000000e+02 
97.834   4.54000000e+02 
97.798   4.41000000e+02 
97.762   4.35000000e+02 
97.726   4.43000000e+02 
97.690   4.62000000e+02 
97.654   4.44000000e+02 
97.618   4.50000000e+02 
97.582   4.53000000e+02 
97.546   4.55000000e+02 
97.510   4.74000000e+02 
97.474   4.55000000e+02 
97.438   4.50000000e+02 
97.402   4.70000000e+02 
97.366   4.72000000e+02 
97.330   5.13000000e+02 
97.295   4.82000000e+02 
97.259   5.01000000e+02 
97.223   5.01000000e+02 
97.187   5.17000000e+02 
97.151   5.78000000e+02 
97.115   5.26000000e+02 
97.079   5.59000000e+02 
97.043   5.60000000e+02 
97.007   5.19000000e+02 
96.971   5.94000000e+02 
96.935   5.72000000e+02 
96.899   6.30000000e+02 
96.863   6.10000000e+02 
96.827   5.74000000e+02 
96.791   6.11000000e+02 
96.755   6.38000000e+02 
96.720   6.50000000e+02 
96.684   6.89000000e+02 
96.648   6.68000000e+02 
96.612   7.19000000e+02 
96.576   6.92000000e+02 
96.540   7.65000000e+02 
96.504   7.94000000e+02 
96.468   7.83000000e+02 
96.432   8.01000000e+02 
96.396   8.11000000e+02 
96.360   8.51000000e+02 
96.324   8.79000000e+02 
96.288   9.08000000e+02 
96.252   9.43000000e+02 
96.216   1.02900000e+03 
96.180   1.00600000e+03 
96.145   1.09500000e+03 
96.109   1.08400000e+03 
96.073   1.12900000e+03 
96.037   1.09900000e+03 
96.001   1.24400000e+03 
95.965   1.18900000e+03 
95.929   1.19200000e+03 
95.893   1.28800000e+03 
95.857   1.36200000e+03 
95.821   1.35700000e+03 
95.785   1.39600000e+03 
95.749   1.42200000e+03 
95.713   1.47700000e+03 
95.677   1.53600000e+03 
95.641   1.54500000e+03 
95.605   1.53900000e+03 
95.570   1.54800000e+03 
95.534   1.64700000e+03 
95.498   1.69200000e+03 
95.462   1.74700000e+03 
95.426   1.77800000e+03 
95.390   1.83200000e+03 
95.354   1.84700000e+03 
95.318   1.90200000e+03 
95.282   1.79400000e+03 
95.246   1.87700000e+03 
95.210   1.94500000e+03 
95.174   1.97900000e+03 
95.138   2.02600000e+03 
95.102   2.06200000e+03 
95.066   2.04700000e+03 
95.030   2.04900000e+03 
94.995   1.94600000e+03 
94.959   2.06200000e+03 
94.923   2.04800000e+03 
94.887   2.04800000e+03 
94.851   1.98600000e+03 
94.815   2.04100000e+03 
94.779   2.03600000e+03 
94.743   1.95000000e+03 
94.707   1.93600000e+03 
94.671   1.87500000e+03 
94.635   1.83600000e+03 
94.599   1.75400000e+03 
94.563   1.71600000e+03 
94.527   1.58700000e+03 
94.491   1.62900000e+03 
94.455   1.47100000e+03 
94.420   1.43500000e+03 
94.384   1.35300000e+03 
94.348   1.17500000e+03 
94.312   1.16300000e+03 
94.276   1.12000000e+03 
94.240   1.03400000e+03 
94.204   9.94000000e+02 
94.168   9.20000000e+02 
94.132   8.33000000e+02 
94.096   8.15000000e+02 
94.060   8.04000000e+02 
94.024   6.94000000e+02 
93.988   7.10000000e+02 
93.952   6.87000000e+02 
93.916   6.17000000e+02 
93.880   5.97000000e+02 
93.845   5.86000000e+02 
93.809   5.76000000e+02 
93.773   5.79000000e+02 
93.737   5.86000000e+02 
93.701   4.67000000e+02 
93.665   5.48000000e+02 
93.629   5.02000000e+02 
93.593   5.58000000e+02 
93.557   5.37000000e+02 
93.521   5.45000000e+02 
93.485   5.00000000e+02 
93.449   5.38000000e+02 
93.413   5.92000000e+02 
93.377   5.47000000e+02 
93.341   6.19000000e+02 
93.305   6.36000000e+02 
93.270   5.90000000e+02 
93.234   6.28000000e+02 
93.198   6.30000000e+02 
93.162   6.18000000e+02 
93.126   6.48000000e+02 
93.090   6.72000000e+02 
93.054   7.04000000e+02 
93.018   6.95000000e+02 
92.982   6.59000000e+02 
92.946   7.04000000e+02 
92.910   7.38000000e+02 
92.874   7.91000000e+02 
92.838   8.53000000e+02 
92.802   7.97000000e+02 
92.766   8.91000000e+02 
92.730   9.48000000e+02 
92.695   9.54000000e+02 
92.659   1.01500000e+03 
92.623   9.91000000e+02 
92.587   1.08700000e+03 
92.551   1.17600000e+03 
92.515   1.09500000e+03 
92.479   1.17600000e+03 
92.443   1.13300000e+03 
92.407   1.23700000e+03 
92.371   1.29800000e+03 
92.335   1.35500000e+03 
92.299   1.43100000e+03 
92.263   1.41500000e+03 
92.227   1.34900000e+03 
92.191   1.44400000e+03 
92.155   1.55500000e+03 
92.120   1.59600000e+03 
92.084   1.72100000e+03 
92.048   1.70600000e+03 
92.012   1.72700000e+03 
91.976   1.78500000e+03 
91.940   1.86200000e+03 
91.904   1.80200000e+03 
91.868   1.94500000e+03 
91.832   2.00100000e+03 
91.796   2.07700000e+03 
91.760   2.09400000e+03 
91.724   2.01700000e+03 
91.688   2.04600000e+03 
91.652   2.19000000e+03 
91.616   2.30400000e+03 
91.580   2.33200000e+03 
91.545   2.33600000e+03 
91.509   2.35900000e+03 
91.473   2.38000000e+03 
91.437   2.35500000e+03 
91.401   2.36900000e+03 
91.365   2.34800000e+03 
91.329   2.51100000e+03 
91.293   2.43300000e+03 
91.257   2.51000000e+03 
91.221   2.36500000e+03 
91.185   2.29300000e+03 
91.149   2.33600000e+03 
91.113   2.38900000e+03 
91.077   2.26700000e+03 
91.041   2.32600000e+03 
91.005   2.11300000e+03 
90.970   2.12800000e+03 
90.934   2.12900000e+03 
90.898   1.96100000e+03 
90.862   1.83200000e+03 
90.826   1.81700000e+03 
90.790   1.66600000e+03 
90.754   1.58400000e+03 
90.718   1.53500000e+03 
90.682   1.33200000e+03 
90.646   1.22100000e+03 
90.610   1.14100000e+03 
90.574   1.04300000e+03 
90.538   9.36000000e+02 
90.502   9.04000000e+02 
90.466   7.78000000e+02 
90.430   6.89000000e+02 
90.395   7.22000000e+02 
90.359   6.19000000e+02 
90.323   5.62000000e+02 
90.287   4.97000000e+02 
90.251   4.94000000e+02 
90.215   4.07000000e+02 
90.179   4.23000000e+02 
90.143   3.44000000e+02 
90.107   3.84000000e+02 
90.071   3.47000000e+02 
90.035   3.28000000e+02 
89.999   3.12000000e+02 
89.963   3.38000000e+02 
89.927   2.95000000e+02 
89.891   2.80000000e+02 
89.855   3.11000000e+02 
89.820   2.77000000e+02 
89.784   2.64000000e+02 
89.748   2.67000000e+02 
89.712   2.47000000e+02 
89.676   2.41000000e+02 
89.640   2.53000000e+02 
89.604   2.41000000e+02 
89.568   2.64000000e+02 
89.532   2.24000000e+02 
89.496   2.34000000e+02 
89.460   2.18000000e+02 
89.424   2.18000000e+02 
89.388   2.10000000e+02 
89.352   2.33000000e+02 
89.316   2.24000000e+02 
89.280   2.02000000e+02 
89.245   1.81000000e+02 
89.209   2.15000000e+02 
89.173   2.24000000e+02 
89.137   1.93000000e+02 
89.101   2.08000000e+02 
89.065   1.93000000e+02 
89.029   2.00000000e+02 
88.993   2.08000000e+02 
88.957   1.78000000e+02 
88.921   2.12000000e+02 
88.885   2.23000000e+02 
88.849   1.88000000e+02 
88.813   2.00000000e+02 
88.777   1.86000000e+02 
88.741   1.97000000e+02 
88.705   1.79000000e+02 
88.670   1.84000000e+02 
88.634   1.65000000e+02 
88.598   1.55000000e+02 
88.562   1.93000000e+02 
88.526   1.76000000e+02 
88.490   1.87000000e+02 
88.454   1.59000000e+02 
88.418   1.70000000e+02 
88.382   1.59000000e+02 
88.346   1.75000000e+02 
88.310   1.79000000e+02 
88.274   1.86000000e+02 
88.238   1.83000000e+02 
88.202   1.52000000e+02 
88.166   1.84000000e+02 
88.130   1.54000000e+02 
88.095   1.78000000e+02 
88.059   1.52000000e+02 
88.023   1.72000000e+02 

