EXPERIMENT FILE
Version = 2

[ Experiment Parameters ]
Experiment Description= <none> 
Number_of_Regions_in_Experiment= 1 

Original_File_name= C:\alexesca\data\10192012_Au _4f_59nuetral+36_Mono205.xps 
Instrument= HP ESCA West
Date= 10-19-2012
Time=  15:25:12

[ Layer Parameters ]
Layer_Type= XPS

[ Region 1 Parameters ]
Region_Description = Au 4f Dithered Scan                
BEcenter(eV) = 93.000000
BEwidth(eV) = 10.000000
BEstep(eV) = 0.035937
Dwell_Time(sec) = 1.000000
N_o_scans = 1  
N_o_Channels = 278  
Scan_mode = 0  (DITHERED)

[ L= 1 R= 1 ]
BEcenter= 93.000  
BEwidth= -9.955  
Excitation= 1486.600
Time_p_channel= 256.000 
Size= 278
97.977   3.29000000e+02 
97.941   3.14000000e+02 
97.905   3.57000000e+02 
97.870   3.36000000e+02 
97.834   3.23000000e+02 
97.798   3.20000000e+02 
97.762   3.06000000e+02 
97.726   3.35000000e+02 
97.690   3.65000000e+02 
97.654   3.64000000e+02 
97.618   3.46000000e+02 
97.582   3.83000000e+02 
97.546   3.77000000e+02 
97.510   3.39000000e+02 
97.474   3.44000000e+02 
97.438   3.57000000e+02 
97.402   3.62000000e+02 
97.366   3.78000000e+02 
97.330   3.91000000e+02 
97.295   4.02000000e+02 
97.259   3.84000000e+02 
97.223   3.87000000e+02 
97.187   4.30000000e+02 
97.151   4.32000000e+02 
97.115   4.58000000e+02 
97.079   4.29000000e+02 
97.043   4.51000000e+02 
97.007   4.57000000e+02 
96.971   4.18000000e+02 
96.935   4.63000000e+02 
96.899   4.77000000e+02 
96.863   4.89000000e+02 
96.827   4.78000000e+02 
96.791   5.29000000e+02 
96.755   5.47000000e+02 
96.720   5.34000000e+02 
96.684   5.57000000e+02 
96.648   6.20000000e+02 
96.612   5.88000000e+02 
96.576   5.78000000e+02 
96.540   6.52000000e+02 
96.504   6.30000000e+02 
96.468   6.62000000e+02 
96.432   6.90000000e+02 
96.396   6.90000000e+02 
96.360   7.47000000e+02 
96.324   7.39000000e+02 
96.288   7.72000000e+02 
96.252   7.84000000e+02 
96.216   7.72000000e+02 
96.180   8.15000000e+02 
96.145   8.41000000e+02 
96.109   8.20000000e+02 
96.073   8.76000000e+02 
96.037   8.86000000e+02 
96.001   9.42000000e+02 
95.965   9.28000000e+02 
95.929   9.00000000e+02 
95.893   9.65000000e+02 
95.857   9.69000000e+02 
95.821   9.96000000e+02 
95.785   1.05000000e+03 
95.749   1.03200000e+03 
95.713   1.08700000e+03 
95.677   1.08300000e+03 
95.641   1.04100000e+03 
95.605   1.07100000e+03 
95.570   1.06100000e+03 
95.534   1.15700000e+03 
95.498   1.16500000e+03 
95.462   1.12600000e+03 
95.426   1.12900000e+03 
95.390   1.20900000e+03 
95.354   1.14600000e+03 
95.318   1.20000000e+03 
95.282   1.22200000e+03 
95.246   1.22100000e+03 
95.210   1.25500000e+03 
95.174   1.23000000e+03 
95.138   1.29400000e+03 
95.102   1.21700000e+03 
95.066   1.27400000e+03 
95.030   1.27000000e+03 
94.995   1.27000000e+03 
94.959   1.32000000e+03 
94.923   1.28800000e+03 
94.887   1.30900000e+03 
94.851   1.33800000e+03 
94.815   1.30400000e+03 
94.779   1.27400000e+03 
94.743   1.36100000e+03 
94.707   1.36300000e+03 
94.671   1.34000000e+03 
94.635   1.35200000e+03 
94.599   1.36900000e+03 
94.563   1.33200000e+03 
94.527   1.34500000e+03 
94.491   1.32100000e+03 
94.455   1.27400000e+03 
94.420   1.33500000e+03 
94.384   1.27900000e+03 
94.348   1.21700000e+03 
94.312   1.23700000e+03 
94.276   1.11800000e+03 
94.240   1.13400000e+03 
94.204   1.11500000e+03 
94.168   1.07700000e+03 
94.132   1.09100000e+03 
94.096   1.01300000e+03 
94.060   9.81000000e+02 
94.024   9.32000000e+02 
93.988   8.91000000e+02 
93.952   7.91000000e+02 
93.916   7.88000000e+02 
93.880   7.26000000e+02 
93.845   6.78000000e+02 
93.809   6.54000000e+02 
93.773   6.45000000e+02 
93.737   5.88000000e+02 
93.701   6.26000000e+02 
93.665   5.86000000e+02 
93.629   5.20000000e+02 
93.593   5.17000000e+02 
93.557   5.01000000e+02 
93.521   5.13000000e+02 
93.485   5.37000000e+02 
93.449   5.21000000e+02 
93.413   5.19000000e+02 
93.377   5.17000000e+02 
93.341   4.82000000e+02 
93.305   5.06000000e+02 
93.270   4.99000000e+02 
93.234   5.18000000e+02 
93.198   5.59000000e+02 
93.162   5.57000000e+02 
93.126   5.71000000e+02 
93.090   5.71000000e+02 
93.054   6.19000000e+02 
93.018   5.82000000e+02 
92.982   6.11000000e+02 
92.946   6.39000000e+02 
92.910   6.58000000e+02 
92.874   7.17000000e+02 
92.838   6.45000000e+02 
92.802   7.89000000e+02 
92.766   7.02000000e+02 
92.730   8.04000000e+02 
92.695   7.70000000e+02 
92.659   8.08000000e+02 
92.623   8.51000000e+02 
92.587   8.36000000e+02 
92.551   8.66000000e+02 
92.515   9.03000000e+02 
92.479   9.18000000e+02 
92.443   9.32000000e+02 
92.407   1.03600000e+03 
92.371   1.02100000e+03 
92.335   1.01800000e+03 
92.299   1.01000000e+03 
92.263   1.08200000e+03 
92.227   1.13700000e+03 
92.191   1.08600000e+03 
92.155   1.11700000e+03 
92.120   1.17800000e+03 
92.084   1.16200000e+03 
92.048   1.17100000e+03 
92.012   1.18300000e+03 
91.976   1.27100000e+03 
91.940   1.24200000e+03 
91.904   1.24800000e+03 
91.868   1.30000000e+03 
91.832   1.33500000e+03 
91.796   1.29100000e+03 
91.760   1.27200000e+03 
91.724   1.36000000e+03 
91.688   1.28000000e+03 
91.652   1.34800000e+03 
91.616   1.35500000e+03 
91.580   1.42500000e+03 
91.545   1.45000000e+03 
91.509   1.51500000e+03 
91.473   1.46100000e+03 
91.437   1.46500000e+03 
91.401   1.44400000e+03 
91.365   1.44100000e+03 
91.329   1.49500000e+03 
91.293   1.50000000e+03 
91.257   1.56400000e+03 
91.221   1.48700000e+03 
91.185   1.57700000e+03 
91.149   1.53100000e+03 
91.113   1.51300000e+03 
91.077   1.53100000e+03 
91.041   1.52500000e+03 
91.005   1.61400000e+03 
90.970   1.60700000e+03 
90.934   1.54700000e+03 
90.898   1.55300000e+03 
90.862   1.53300000e+03 
90.826   1.45600000e+03 
90.790   1.47600000e+03 
90.754   1.46000000e+03 
90.718   1.53500000e+03 
90.682   1.45600000e+03 
90.646   1.33800000e+03 
90.610   1.40100000e+03 
90.574   1.35900000e+03 
90.538   1.33300000e+03 
90.502   1.22400000e+03 
90.466   1.17900000e+03 
90.430   1.12400000e+03 
90.395   1.00200000e+03 
90.359   9.90000000e+02 
90.323   8.81000000e+02 
90.287   9.05000000e+02 
90.251   8.45000000e+02 
90.215   7.40000000e+02 
90.179   6.81000000e+02 
90.143   6.26000000e+02 
90.107   5.79000000e+02 
90.071   5.28000000e+02 
90.035   4.38000000e+02 
89.999   4.37000000e+02 
89.963   4.29000000e+02 
89.927   3.73000000e+02 
89.891   3.48000000e+02 
89.855   3.17000000e+02 
89.820   2.81000000e+02 
89.784   2.56000000e+02 
89.748   2.52000000e+02 
89.712   2.71000000e+02 
89.676   2.55000000e+02 
89.640   2.28000000e+02 
89.604   2.39000000e+02 
89.568   2.56000000e+02 
89.532   2.09000000e+02 
89.496   1.65000000e+02 
89.460   2.12000000e+02 
89.424   2.02000000e+02 
89.388   1.96000000e+02 
89.352   1.83000000e+02 
89.316   1.55000000e+02 
89.280   1.63000000e+02 
89.245   1.79000000e+02 
89.209   1.69000000e+02 
89.173   1.84000000e+02 
89.137   1.69000000e+02 
89.101   1.68000000e+02 
89.065   1.68000000e+02 
89.029   1.71000000e+02 
88.993   1.34000000e+02 
88.957   1.36000000e+02 
88.921   1.52000000e+02 
88.885   1.53000000e+02 
88.849   1.59000000e+02 
88.813   1.40000000e+02 
88.777   1.60000000e+02 
88.741   1.67000000e+02 
88.705   1.27000000e+02 
88.670   1.43000000e+02 
88.634   1.56000000e+02 
88.598   1.27000000e+02 
88.562   1.42000000e+02 
88.526   1.25000000e+02 
88.490   1.51000000e+02 
88.454   1.36000000e+02 
88.418   1.63000000e+02 
88.382   1.32000000e+02 
88.346   1.48000000e+02 
88.310   1.35000000e+02 
88.274   1.39000000e+02 
88.238   1.47000000e+02 
88.202   1.48000000e+02 
88.166   1.52000000e+02 
88.130   1.29000000e+02 
88.095   1.15000000e+02 
88.059   1.34000000e+02 
88.023   1.25000000e+02 

