EXPERIMENT FILE
Version = 2

[ Experiment Parameters ]
Experiment Description= <none> 
Number_of_Regions_in_Experiment= 1 

Original_File_name= C:\alexesca\data\10192012_Au _4f_59nuetral+36_Mono220.xps 
Instrument= HP ESCA West
Date= 10-19-2012
Time=  12:56:23

[ Layer Parameters ]
Layer_Type= XPS

[ Region 1 Parameters ]
Region_Description = Au 4f Dithered Scan                
BEcenter(eV) = 93.000000
BEwidth(eV) = 10.000000
BEstep(eV) = 0.035937
Dwell_Time(sec) = 1.000000
N_o_scans = 1  
N_o_Channels = 278  
Scan_mode = 0  (DITHERED)

[ L= 1 R= 1 ]
BEcenter= 93.000  
BEwidth= -9.955  
Excitation= 1486.600
Time_p_channel= 256.000 
Size= 278
97.977   5.30000000e+02 
97.941   5.42000000e+02 
97.905   5.35000000e+02 
97.870   5.69000000e+02 
97.834   5.54000000e+02 
97.798   5.79000000e+02 
97.762   5.60000000e+02 
97.726   5.65000000e+02 
97.690   5.89000000e+02 
97.654   5.93000000e+02 
97.618   5.99000000e+02 
97.582   5.70000000e+02 
97.546   5.87000000e+02 
97.510   6.00000000e+02 
97.474   5.93000000e+02 
97.438   6.24000000e+02 
97.402   5.69000000e+02 
97.366   6.25000000e+02 
97.330   6.63000000e+02 
97.295   6.83000000e+02 
97.259   6.39000000e+02 
97.223   6.20000000e+02 
97.187   6.82000000e+02 
97.151   6.97000000e+02 
97.115   6.69000000e+02 
97.079   7.33000000e+02 
97.043   7.43000000e+02 
97.007   7.35000000e+02 
96.971   7.50000000e+02 
96.935   7.78000000e+02 
96.899   8.31000000e+02 
96.863   8.53000000e+02 
96.827   8.70000000e+02 
96.791   8.71000000e+02 
96.755   9.69000000e+02 
96.720   9.66000000e+02 
96.684   8.99000000e+02 
96.648   9.89000000e+02 
96.612   1.07600000e+03 
96.576   1.10100000e+03 
96.540   1.05800000e+03 
96.504   1.16200000e+03 
96.468   1.15100000e+03 
96.432   1.25200000e+03 
96.396   1.23300000e+03 
96.360   1.25500000e+03 
96.324   1.29000000e+03 
96.288   1.42600000e+03 
96.252   1.42900000e+03 
96.216   1.45000000e+03 
96.180   1.42000000e+03 
96.145   1.52900000e+03 
96.109   1.51400000e+03 
96.073   1.60900000e+03 
96.037   1.64700000e+03 
96.001   1.75400000e+03 
95.965   1.66700000e+03 
95.929   1.79400000e+03 
95.893   1.72200000e+03 
95.857   1.73400000e+03 
95.821   1.70700000e+03 
95.785   1.78100000e+03 
95.749   1.80500000e+03 
95.713   1.87600000e+03 
95.677   1.85800000e+03 
95.641   1.86900000e+03 
95.605   1.92100000e+03 
95.570   1.95700000e+03 
95.534   1.98800000e+03 
95.498   1.95700000e+03 
95.462   1.93400000e+03 
95.426   1.95900000e+03 
95.390   2.07700000e+03 
95.354   1.98600000e+03 
95.318   1.92900000e+03 
95.282   1.97300000e+03 
95.246   2.08600000e+03 
95.210   2.11500000e+03 
95.174   2.02900000e+03 
95.138   2.06000000e+03 
95.102   2.10000000e+03 
95.066   2.01200000e+03 
95.030   2.05000000e+03 
94.995   2.01900000e+03 
94.959   2.11300000e+03 
94.923   2.11700000e+03 
94.887   2.05200000e+03 
94.851   2.10700000e+03 
94.815   2.11900000e+03 
94.779   2.17100000e+03 
94.743   2.05100000e+03 
94.707   2.01900000e+03 
94.671   2.01800000e+03 
94.635   1.97600000e+03 
94.599   2.01100000e+03 
94.563   1.96800000e+03 
94.527   1.96100000e+03 
94.491   1.95900000e+03 
94.455   1.87300000e+03 
94.420   1.86900000e+03 
94.384   1.88000000e+03 
94.348   1.83700000e+03 
94.312   1.73000000e+03 
94.276   1.70100000e+03 
94.240   1.57800000e+03 
94.204   1.57400000e+03 
94.168   1.45600000e+03 
94.132   1.40500000e+03 
94.096   1.38300000e+03 
94.060   1.32700000e+03 
94.024   1.28500000e+03 
93.988   1.19500000e+03 
93.952   1.03200000e+03 
93.916   1.07800000e+03 
93.880   1.01000000e+03 
93.845   9.16000000e+02 
93.809   9.54000000e+02 
93.773   9.28000000e+02 
93.737   8.09000000e+02 
93.701   8.01000000e+02 
93.665   8.08000000e+02 
93.629   8.10000000e+02 
93.593   8.41000000e+02 
93.557   7.77000000e+02 
93.521   7.79000000e+02 
93.485   7.89000000e+02 
93.449   7.60000000e+02 
93.413   8.23000000e+02 
93.377   7.62000000e+02 
93.341   8.25000000e+02 
93.305   8.55000000e+02 
93.270   8.83000000e+02 
93.234   8.81000000e+02 
93.198   9.14000000e+02 
93.162   9.58000000e+02 
93.126   9.35000000e+02 
93.090   1.01600000e+03 
93.054   1.01300000e+03 
93.018   1.08900000e+03 
92.982   1.06800000e+03 
92.946   1.17100000e+03 
92.910   1.14200000e+03 
92.874   1.16300000e+03 
92.838   1.18400000e+03 
92.802   1.29100000e+03 
92.766   1.26400000e+03 
92.730   1.40100000e+03 
92.695   1.43800000e+03 
92.659   1.50000000e+03 
92.623   1.54000000e+03 
92.587   1.57700000e+03 
92.551   1.54500000e+03 
92.515   1.69700000e+03 
92.479   1.67600000e+03 
92.443   1.68000000e+03 
92.407   1.79600000e+03 
92.371   1.77800000e+03 
92.335   1.97300000e+03 
92.299   1.97500000e+03 
92.263   1.90200000e+03 
92.227   2.02300000e+03 
92.191   2.14400000e+03 
92.155   2.09600000e+03 
92.120   1.99300000e+03 
92.084   2.09600000e+03 
92.048   2.16800000e+03 
92.012   2.21400000e+03 
91.976   2.15300000e+03 
91.940   2.23200000e+03 
91.904   2.17800000e+03 
91.868   2.23600000e+03 
91.832   2.15300000e+03 
91.796   2.24200000e+03 
91.760   2.35200000e+03 
91.724   2.34600000e+03 
91.688   2.34000000e+03 
91.652   2.29200000e+03 
91.616   2.36000000e+03 
91.580   2.45200000e+03 
91.545   2.25700000e+03 
91.509   2.32800000e+03 
91.473   2.39200000e+03 
91.437   2.44600000e+03 
91.401   2.38900000e+03 
91.365   2.41600000e+03 
91.329   2.38400000e+03 
91.293   2.42800000e+03 
91.257   2.40000000e+03 
91.221   2.39700000e+03 
91.185   2.42800000e+03 
91.149   2.48100000e+03 
91.113   2.38100000e+03 
91.077   2.36900000e+03 
91.041   2.29600000e+03 
91.005   2.33800000e+03 
90.970   2.29500000e+03 
90.934   2.24900000e+03 
90.898   2.34100000e+03 
90.862   2.21100000e+03 
90.826   2.17000000e+03 
90.790   2.13400000e+03 
90.754   2.08300000e+03 
90.718   2.03800000e+03 
90.682   1.95100000e+03 
90.646   1.91400000e+03 
90.610   1.81700000e+03 
90.574   1.68400000e+03 
90.538   1.74500000e+03 
90.502   1.51500000e+03 
90.466   1.54300000e+03 
90.430   1.39100000e+03 
90.395   1.25300000e+03 
90.359   1.24800000e+03 
90.323   1.12700000e+03 
90.287   1.05000000e+03 
90.251   9.46000000e+02 
90.215   8.79000000e+02 
90.179   7.66000000e+02 
90.143   7.15000000e+02 
90.107   6.77000000e+02 
90.071   6.01000000e+02 
90.035   5.53000000e+02 
89.999   5.45000000e+02 
89.963   5.05000000e+02 
89.927   4.70000000e+02 
89.891   4.11000000e+02 
89.855   4.18000000e+02 
89.820   3.72000000e+02 
89.784   3.88000000e+02 
89.748   3.71000000e+02 
89.712   3.38000000e+02 
89.676   3.32000000e+02 
89.640   3.37000000e+02 
89.604   3.08000000e+02 
89.568   3.30000000e+02 
89.532   3.31000000e+02 
89.496   2.86000000e+02 
89.460   2.97000000e+02 
89.424   2.90000000e+02 
89.388   2.70000000e+02 
89.352   2.83000000e+02 
89.316   2.81000000e+02 
89.280   3.01000000e+02 
89.245   2.88000000e+02 
89.209   2.79000000e+02 
89.173   2.37000000e+02 
89.137   2.87000000e+02 
89.101   2.40000000e+02 
89.065   2.42000000e+02 
89.029   2.31000000e+02 
88.993   2.07000000e+02 
88.957   2.37000000e+02 
88.921   2.35000000e+02 
88.885   2.34000000e+02 
88.849   2.52000000e+02 
88.813   2.61000000e+02 
88.777   2.37000000e+02 
88.741   1.97000000e+02 
88.705   2.28000000e+02 
88.670   2.10000000e+02 
88.634   2.19000000e+02 
88.598   2.33000000e+02 
88.562   2.21000000e+02 
88.526   2.22000000e+02 
88.490   1.85000000e+02 
88.454   2.17000000e+02 
88.418   1.99000000e+02 
88.382   2.17000000e+02 
88.346   2.12000000e+02 
88.310   1.89000000e+02 
88.274   2.10000000e+02 
88.238   1.87000000e+02 
88.202   2.11000000e+02 
88.166   1.90000000e+02 
88.130   2.09000000e+02 
88.095   2.15000000e+02 
88.059   2.05000000e+02 
88.023   2.26000000e+02 

