EXPERIMENT FILE
Version = 2

[ Experiment Parameters ]
Experiment Description= <none> 
Number_of_Regions_in_Experiment= 1 

Original_File_name= C:\alexesca\data\10192012_Au _4f_59nuetral+11_Mono205.xps 
Instrument= HP ESCA West
Date= 10-19-2012
Time=  15:13:42

[ Layer Parameters ]
Layer_Type= XPS

[ Region 1 Parameters ]
Region_Description = Au 4f Dithered Scan                
BEcenter(eV) = 93.000000
BEwidth(eV) = 10.000000
BEstep(eV) = 0.035937
Dwell_Time(sec) = 1.000000
N_o_scans = 1  
N_o_Channels = 278  
Scan_mode = 0  (DITHERED)

[ L= 1 R= 1 ]
BEcenter= 93.000  
BEwidth= -9.955  
Excitation= 1486.600
Time_p_channel= 256.000 
Size= 278
97.977   3.13000000e+02 
97.941   4.05000000e+02 
97.905   3.33000000e+02 
97.870   3.78000000e+02 
97.834   4.13000000e+02 
97.798   3.84000000e+02 
97.762   3.83000000e+02 
97.726   3.70000000e+02 
97.690   3.67000000e+02 
97.654   3.52000000e+02 
97.618   3.85000000e+02 
97.582   3.60000000e+02 
97.546   3.78000000e+02 
97.510   3.97000000e+02 
97.474   4.24000000e+02 
97.438   3.87000000e+02 
97.402   3.86000000e+02 
97.366   4.09000000e+02 
97.330   3.87000000e+02 
97.295   4.09000000e+02 
97.259   4.08000000e+02 
97.223   3.87000000e+02 
97.187   4.12000000e+02 
97.151   3.92000000e+02 
97.115   4.35000000e+02 
97.079   4.37000000e+02 
97.043   3.83000000e+02 
97.007   4.38000000e+02 
96.971   4.29000000e+02 
96.935   4.61000000e+02 
96.899   4.52000000e+02 
96.863   4.46000000e+02 
96.827   4.49000000e+02 
96.791   4.92000000e+02 
96.755   4.52000000e+02 
96.720   4.94000000e+02 
96.684   4.83000000e+02 
96.648   4.87000000e+02 
96.612   4.59000000e+02 
96.576   5.04000000e+02 
96.540   5.39000000e+02 
96.504   5.52000000e+02 
96.468   5.70000000e+02 
96.432   5.75000000e+02 
96.396   5.63000000e+02 
96.360   5.91000000e+02 
96.324   6.54000000e+02 
96.288   6.08000000e+02 
96.252   6.25000000e+02 
96.216   6.37000000e+02 
96.180   6.74000000e+02 
96.145   7.07000000e+02 
96.109   7.22000000e+02 
96.073   6.89000000e+02 
96.037   7.18000000e+02 
96.001   7.52000000e+02 
95.965   7.94000000e+02 
95.929   8.03000000e+02 
95.893   7.65000000e+02 
95.857   8.27000000e+02 
95.821   8.56000000e+02 
95.785   9.57000000e+02 
95.749   9.38000000e+02 
95.713   9.35000000e+02 
95.677   9.93000000e+02 
95.641   9.85000000e+02 
95.605   1.07100000e+03 
95.570   1.07700000e+03 
95.534   1.16100000e+03 
95.498   1.15200000e+03 
95.462   1.17700000e+03 
95.426   1.24200000e+03 
95.390   1.17200000e+03 
95.354   1.27200000e+03 
95.318   1.32700000e+03 
95.282   1.34100000e+03 
95.246   1.37700000e+03 
95.210   1.42900000e+03 
95.174   1.45800000e+03 
95.138   1.45500000e+03 
95.102   1.52800000e+03 
95.066   1.61600000e+03 
95.030   1.62300000e+03 
94.995   1.68900000e+03 
94.959   1.64400000e+03 
94.923   1.65000000e+03 
94.887   1.80000000e+03 
94.851   1.74800000e+03 
94.815   1.78400000e+03 
94.779   1.90100000e+03 
94.743   1.83000000e+03 
94.707   1.82000000e+03 
94.671   1.90900000e+03 
94.635   1.89300000e+03 
94.599   1.80600000e+03 
94.563   1.95100000e+03 
94.527   1.89600000e+03 
94.491   1.80800000e+03 
94.455   1.83600000e+03 
94.420   1.74300000e+03 
94.384   1.71500000e+03 
94.348   1.67900000e+03 
94.312   1.54600000e+03 
94.276   1.49400000e+03 
94.240   1.44600000e+03 
94.204   1.37500000e+03 
94.168   1.25300000e+03 
94.132   1.24500000e+03 
94.096   1.06000000e+03 
94.060   1.04000000e+03 
94.024   9.62000000e+02 
93.988   8.79000000e+02 
93.952   7.86000000e+02 
93.916   6.99000000e+02 
93.880   6.45000000e+02 
93.845   6.59000000e+02 
93.809   6.39000000e+02 
93.773   5.99000000e+02 
93.737   5.31000000e+02 
93.701   5.41000000e+02 
93.665   5.01000000e+02 
93.629   5.05000000e+02 
93.593   5.08000000e+02 
93.557   4.96000000e+02 
93.521   4.73000000e+02 
93.485   5.08000000e+02 
93.449   4.85000000e+02 
93.413   4.95000000e+02 
93.377   4.76000000e+02 
93.341   4.79000000e+02 
93.305   4.67000000e+02 
93.270   4.63000000e+02 
93.234   4.69000000e+02 
93.198   4.75000000e+02 
93.162   4.24000000e+02 
93.126   4.87000000e+02 
93.090   4.68000000e+02 
93.054   5.20000000e+02 
93.018   4.91000000e+02 
92.982   4.92000000e+02 
92.946   4.75000000e+02 
92.910   5.70000000e+02 
92.874   5.70000000e+02 
92.838   5.84000000e+02 
92.802   5.60000000e+02 
92.766   5.54000000e+02 
92.730   6.29000000e+02 
92.695   6.14000000e+02 
92.659   6.52000000e+02 
92.623   6.40000000e+02 
92.587   6.77000000e+02 
92.551   6.87000000e+02 
92.515   7.44000000e+02 
92.479   7.41000000e+02 
92.443   7.42000000e+02 
92.407   7.39000000e+02 
92.371   7.63000000e+02 
92.335   8.46000000e+02 
92.299   8.66000000e+02 
92.263   9.18000000e+02 
92.227   8.92000000e+02 
92.191   9.53000000e+02 
92.155   9.62000000e+02 
92.120   1.01300000e+03 
92.084   9.53000000e+02 
92.048   1.04600000e+03 
92.012   1.05500000e+03 
91.976   1.09000000e+03 
91.940   1.14700000e+03 
91.904   1.17800000e+03 
91.868   1.19800000e+03 
91.832   1.19300000e+03 
91.796   1.31300000e+03 
91.760   1.37100000e+03 
91.724   1.39200000e+03 
91.688   1.45100000e+03 
91.652   1.46500000e+03 
91.616   1.56700000e+03 
91.580   1.53200000e+03 
91.545   1.59600000e+03 
91.509   1.72900000e+03 
91.473   1.70100000e+03 
91.437   1.82200000e+03 
91.401   1.84200000e+03 
91.365   1.89600000e+03 
91.329   1.86900000e+03 
91.293   1.97700000e+03 
91.257   2.09100000e+03 
91.221   2.12900000e+03 
91.185   2.07700000e+03 
91.149   2.14800000e+03 
91.113   2.20700000e+03 
91.077   2.22100000e+03 
91.041   2.19500000e+03 
91.005   2.32600000e+03 
90.970   2.22400000e+03 
90.934   2.27500000e+03 
90.898   2.25000000e+03 
90.862   2.12600000e+03 
90.826   2.12500000e+03 
90.790   2.22500000e+03 
90.754   2.08900000e+03 
90.718   2.08200000e+03 
90.682   1.95900000e+03 
90.646   1.98900000e+03 
90.610   1.79900000e+03 
90.574   1.68200000e+03 
90.538   1.52600000e+03 
90.502   1.42100000e+03 
90.466   1.30200000e+03 
90.430   1.24600000e+03 
90.395   1.04100000e+03 
90.359   1.03500000e+03 
90.323   9.09000000e+02 
90.287   8.03000000e+02 
90.251   7.17000000e+02 
90.215   6.33000000e+02 
90.179   5.98000000e+02 
90.143   5.21000000e+02 
90.107   4.88000000e+02 
90.071   4.35000000e+02 
90.035   3.87000000e+02 
89.999   3.59000000e+02 
89.963   3.80000000e+02 
89.927   3.44000000e+02 
89.891   3.31000000e+02 
89.855   3.07000000e+02 
89.820   2.81000000e+02 
89.784   2.81000000e+02 
89.748   2.95000000e+02 
89.712   2.46000000e+02 
89.676   2.55000000e+02 
89.640   2.39000000e+02 
89.604   2.43000000e+02 
89.568   2.38000000e+02 
89.532   2.16000000e+02 
89.496   2.38000000e+02 
89.460   2.44000000e+02 
89.424   2.21000000e+02 
89.388   1.92000000e+02 
89.352   1.88000000e+02 
89.316   1.71000000e+02 
89.280   1.88000000e+02 
89.245   1.82000000e+02 
89.209   1.81000000e+02 
89.173   1.91000000e+02 
89.137   1.98000000e+02 
89.101   1.73000000e+02 
89.065   1.82000000e+02 
89.029   1.95000000e+02 
88.993   1.70000000e+02 
88.957   1.94000000e+02 
88.921   1.91000000e+02 
88.885   1.80000000e+02 
88.849   1.75000000e+02 
88.813   1.47000000e+02 
88.777   1.66000000e+02 
88.741   1.63000000e+02 
88.705   1.70000000e+02 
88.670   1.54000000e+02 
88.634   1.66000000e+02 
88.598   1.75000000e+02 
88.562   1.82000000e+02 
88.526   1.55000000e+02 
88.490   1.70000000e+02 
88.454   1.78000000e+02 
88.418   1.46000000e+02 
88.382   1.46000000e+02 
88.346   1.72000000e+02 
88.310   1.80000000e+02 
88.274   1.46000000e+02 
88.238   1.46000000e+02 
88.202   1.68000000e+02 
88.166   1.84000000e+02 
88.130   1.66000000e+02 
88.095   1.51000000e+02 
88.059   1.44000000e+02 
88.023   1.57000000e+02 

