EXPERIMENT FILE
Version = 2

[ Experiment Parameters ]
Experiment Description= <none> 
Number_of_Regions_in_Experiment= 1 

Original_File_name= C:\alexesca\data\10222012_Au _4f_59nuetral+11_Mono225.xps 
Instrument= HP ESCA West
Date= 10-22-2012
Time=  12:47:09

[ Layer Parameters ]
Layer_Type= XPS

[ Region 1 Parameters ]
Region_Description = Au 4f Dithered Scan                
BEcenter(eV) = 93.000000
BEwidth(eV) = 10.000000
BEstep(eV) = 0.035937
Dwell_Time(sec) = 1.000000
N_o_scans = 1  
N_o_Channels = 278  
Scan_mode = 0  (DITHERED)

[ L= 1 R= 1 ]
BEcenter= 93.000  
BEwidth= -9.955  
Excitation= 1486.600
Time_p_channel= 256.000 
Size= 278
97.977   4.36000000e+02 
97.941   4.10000000e+02 
97.905   4.36000000e+02 
97.870   4.51000000e+02 
97.834   4.65000000e+02 
97.798   4.72000000e+02 
97.762   4.78000000e+02 
97.726   5.36000000e+02 
97.690   5.47000000e+02 
97.654   5.93000000e+02 
97.618   5.91000000e+02 
97.582   5.50000000e+02 
97.546   5.23000000e+02 
97.510   4.96000000e+02 
97.474   5.03000000e+02 
97.438   4.84000000e+02 
97.402   5.25000000e+02 
97.366   4.98000000e+02 
97.330   5.47000000e+02 
97.295   5.09000000e+02 
97.259   5.98000000e+02 
97.223   5.69000000e+02 
97.187   6.25000000e+02 
97.151   5.85000000e+02 
97.115   6.23000000e+02 
97.079   6.69000000e+02 
97.043   7.12000000e+02 
97.007   7.08000000e+02 
96.971   7.28000000e+02 
96.935   7.09000000e+02 
96.899   7.29000000e+02 
96.863   8.14000000e+02 
96.827   8.25000000e+02 
96.791   8.47000000e+02 
96.755   8.81000000e+02 
96.720   8.76000000e+02 
96.684   9.42000000e+02 
96.648   9.45000000e+02 
96.612   1.00500000e+03 
96.576   1.05300000e+03 
96.540   1.09500000e+03 
96.504   1.07100000e+03 
96.468   1.12200000e+03 
96.432   1.14400000e+03 
96.396   1.20500000e+03 
96.360   1.26900000e+03 
96.324   1.29100000e+03 
96.288   1.35400000e+03 
96.252   1.32700000e+03 
96.216   1.36300000e+03 
96.180   1.50600000e+03 
96.145   1.47200000e+03 
96.109   1.59500000e+03 
96.073   1.56400000e+03 
96.037   1.63200000e+03 
96.001   1.69600000e+03 
95.965   1.64000000e+03 
95.929   1.70600000e+03 
95.893   1.64600000e+03 
95.857   1.80400000e+03 
95.821   1.76700000e+03 
95.785   1.82000000e+03 
95.749   1.81300000e+03 
95.713   1.73300000e+03 
95.677   1.83900000e+03 
95.641   1.82500000e+03 
95.605   1.85700000e+03 
95.570   1.85000000e+03 
95.534   1.91200000e+03 
95.498   1.83900000e+03 
95.462   1.87400000e+03 
95.426   1.76900000e+03 
95.390   1.81200000e+03 
95.354   1.70700000e+03 
95.318   1.69000000e+03 
95.282   1.76800000e+03 
95.246   1.66000000e+03 
95.210   1.62400000e+03 
95.174   1.66300000e+03 
95.138   1.52600000e+03 
95.102   1.51200000e+03 
95.066   1.43100000e+03 
95.030   1.35400000e+03 
94.995   1.25100000e+03 
94.959   1.29700000e+03 
94.923   1.23700000e+03 
94.887   1.12000000e+03 
94.851   1.12100000e+03 
94.815   9.84000000e+02 
94.779   9.86000000e+02 
94.743   9.41000000e+02 
94.707   9.56000000e+02 
94.671   8.61000000e+02 
94.635   7.57000000e+02 
94.599   7.75000000e+02 
94.563   7.02000000e+02 
94.527   6.80000000e+02 
94.491   6.20000000e+02 
94.455   5.98000000e+02 
94.420   5.78000000e+02 
94.384   5.78000000e+02 
94.348   5.52000000e+02 
94.312   5.28000000e+02 
94.276   4.89000000e+02 
94.240   4.90000000e+02 
94.204   4.98000000e+02 
94.168   4.81000000e+02 
94.132   4.71000000e+02 
94.096   4.81000000e+02 
94.060   4.51000000e+02 
94.024   4.93000000e+02 
93.988   4.70000000e+02 
93.952   4.61000000e+02 
93.916   4.78000000e+02 
93.880   4.84000000e+02 
93.845   5.21000000e+02 
93.809   5.15000000e+02 
93.773   5.08000000e+02 
93.737   5.14000000e+02 
93.701   5.98000000e+02 
93.665   5.67000000e+02 
93.629   5.10000000e+02 
93.593   5.80000000e+02 
93.557   6.39000000e+02 
93.521   5.88000000e+02 
93.485   6.53000000e+02 
93.449   6.93000000e+02 
93.413   6.99000000e+02 
93.377   7.34000000e+02 
93.341   7.40000000e+02 
93.305   7.38000000e+02 
93.270   7.65000000e+02 
93.234   8.43000000e+02 
93.198   8.19000000e+02 
93.162   8.92000000e+02 
93.126   9.25000000e+02 
93.090   9.77000000e+02 
93.054   9.70000000e+02 
93.018   1.08700000e+03 
92.982   1.09900000e+03 
92.946   1.14700000e+03 
92.910   1.22900000e+03 
92.874   1.18700000e+03 
92.838   1.29900000e+03 
92.802   1.28200000e+03 
92.766   1.39700000e+03 
92.730   1.45500000e+03 
92.695   1.48100000e+03 
92.659   1.53400000e+03 
92.623   1.55600000e+03 
92.587   1.65000000e+03 
92.551   1.65700000e+03 
92.515   1.75400000e+03 
92.479   1.84200000e+03 
92.443   1.75300000e+03 
92.407   1.88200000e+03 
92.371   1.93100000e+03 
92.335   2.00600000e+03 
92.299   2.06100000e+03 
92.263   2.08300000e+03 
92.227   2.09800000e+03 
92.191   2.14900000e+03 
92.155   2.18700000e+03 
92.120   2.21800000e+03 
92.084   2.34000000e+03 
92.048   2.25100000e+03 
92.012   2.23900000e+03 
91.976   2.24900000e+03 
91.940   2.34400000e+03 
91.904   2.33800000e+03 
91.868   2.38600000e+03 
91.832   2.25100000e+03 
91.796   2.35500000e+03 
91.760   2.30600000e+03 
91.724   2.28600000e+03 
91.688   2.21200000e+03 
91.652   2.25100000e+03 
91.616   2.17900000e+03 
91.580   2.13700000e+03 
91.545   2.16400000e+03 
91.509   1.96100000e+03 
91.473   2.03500000e+03 
91.437   1.93200000e+03 
91.401   1.86400000e+03 
91.365   1.79900000e+03 
91.329   1.70400000e+03 
91.293   1.57700000e+03 
91.257   1.54500000e+03 
91.221   1.46000000e+03 
91.185   1.42000000e+03 
91.149   1.33600000e+03 
91.113   1.17000000e+03 
91.077   1.10200000e+03 
91.041   1.04800000e+03 
91.005   9.91000000e+02 
90.970   9.34000000e+02 
90.934   7.95000000e+02 
90.898   7.25000000e+02 
90.862   7.16000000e+02 
90.826   6.29000000e+02 
90.790   5.38000000e+02 
90.754   5.72000000e+02 
90.718   4.76000000e+02 
90.682   4.73000000e+02 
90.646   4.58000000e+02 
90.610   3.50000000e+02 
90.574   3.67000000e+02 
90.538   3.88000000e+02 
90.502   3.41000000e+02 
90.466   3.13000000e+02 
90.430   3.39000000e+02 
90.395   2.55000000e+02 
90.359   2.94000000e+02 
90.323   2.79000000e+02 
90.287   2.63000000e+02 
90.251   2.51000000e+02 
90.215   2.51000000e+02 
90.179   2.33000000e+02 
90.143   2.38000000e+02 
90.107   2.05000000e+02 
90.071   2.43000000e+02 
90.035   2.47000000e+02 
89.999   2.22000000e+02 
89.963   2.03000000e+02 
89.927   2.20000000e+02 
89.891   2.19000000e+02 
89.855   1.95000000e+02 
89.820   2.51000000e+02 
89.784   2.00000000e+02 
89.748   2.26000000e+02 
89.712   1.86000000e+02 
89.676   1.86000000e+02 
89.640   1.76000000e+02 
89.604   1.97000000e+02 
89.568   2.26000000e+02 
89.532   2.03000000e+02 
89.496   2.00000000e+02 
89.460   1.81000000e+02 
89.424   1.76000000e+02 
89.388   1.83000000e+02 
89.352   1.82000000e+02 
89.316   1.67000000e+02 
89.280   2.19000000e+02 
89.245   1.92000000e+02 
89.209   1.90000000e+02 
89.173   1.81000000e+02 
89.137   1.58000000e+02 
89.101   1.67000000e+02 
89.065   1.68000000e+02 
89.029   1.41000000e+02 
88.993   1.77000000e+02 
88.957   1.56000000e+02 
88.921   1.78000000e+02 
88.885   1.74000000e+02 
88.849   1.80000000e+02 
88.813   1.41000000e+02 
88.777   1.46000000e+02 
88.741   1.55000000e+02 
88.705   1.66000000e+02 
88.670   1.56000000e+02 
88.634   1.59000000e+02 
88.598   1.66000000e+02 
88.562   1.67000000e+02 
88.526   1.46000000e+02 
88.490   1.74000000e+02 
88.454   1.61000000e+02 
88.418   1.70000000e+02 
88.382   1.64000000e+02 
88.346   1.53000000e+02 
88.310   1.67000000e+02 
88.274   1.56000000e+02 
88.238   1.48000000e+02 
88.202   1.61000000e+02 
88.166   1.60000000e+02 
88.130   1.25000000e+02 
88.095   1.80000000e+02 
88.059   1.39000000e+02 
88.023   1.56000000e+02 

