EXPERIMENT FILE
Version = 2

[ Experiment Parameters ]
Experiment Description= <none> 
Number_of_Regions_in_Experiment= 1 

Original_File_name= C:\alexesca\data\10222012_Au _4f_59nuetral+11_Mono222.xps 
Instrument= HP ESCA West
Date= 10-22-2012
Time=  15:19:45

[ Layer Parameters ]
Layer_Type= XPS

[ Region 1 Parameters ]
Region_Description = Au 4f Dithered Scan                
BEcenter(eV) = 93.000000
BEwidth(eV) = 10.000000
BEstep(eV) = 0.035937
Dwell_Time(sec) = 1.000000
N_o_scans = 1  
N_o_Channels = 278  
Scan_mode = 0  (DITHERED)

[ L= 1 R= 1 ]
BEcenter= 93.000  
BEwidth= -9.955  
Excitation= 1486.600
Time_p_channel= 256.000 
Size= 278
97.977   4.46000000e+02 
97.941   4.68000000e+02 
97.905   4.49000000e+02 
97.870   4.55000000e+02 
97.834   4.65000000e+02 
97.798   4.69000000e+02 
97.762   4.61000000e+02 
97.726   4.64000000e+02 
97.690   5.05000000e+02 
97.654   4.40000000e+02 
97.618   4.75000000e+02 
97.582   4.95000000e+02 
97.546   4.54000000e+02 
97.510   4.94000000e+02 
97.474   4.84000000e+02 
97.438   4.95000000e+02 
97.402   5.39000000e+02 
97.366   4.89000000e+02 
97.330   4.66000000e+02 
97.295   5.36000000e+02 
97.259   5.55000000e+02 
97.223   5.66000000e+02 
97.187   5.73000000e+02 
97.151   5.59000000e+02 
97.115   6.00000000e+02 
97.079   5.66000000e+02 
97.043   6.12000000e+02 
97.007   6.00000000e+02 
96.971   5.72000000e+02 
96.935   6.24000000e+02 
96.899   7.17000000e+02 
96.863   7.11000000e+02 
96.827   6.87000000e+02 
96.791   7.41000000e+02 
96.755   7.34000000e+02 
96.720   8.00000000e+02 
96.684   8.28000000e+02 
96.648   8.51000000e+02 
96.612   8.74000000e+02 
96.576   8.64000000e+02 
96.540   9.66000000e+02 
96.504   9.38000000e+02 
96.468   9.99000000e+02 
96.432   9.79000000e+02 
96.396   1.07900000e+03 
96.360   1.10300000e+03 
96.324   1.15400000e+03 
96.288   1.13900000e+03 
96.252   1.19200000e+03 
96.216   1.24500000e+03 
96.180   1.23700000e+03 
96.145   1.34800000e+03 
96.109   1.28800000e+03 
96.073   1.36000000e+03 
96.037   1.38400000e+03 
96.001   1.49700000e+03 
95.965   1.48300000e+03 
95.929   1.56300000e+03 
95.893   1.61500000e+03 
95.857   1.65700000e+03 
95.821   1.71400000e+03 
95.785   1.69700000e+03 
95.749   1.78400000e+03 
95.713   1.79800000e+03 
95.677   1.88100000e+03 
95.641   1.79800000e+03 
95.605   1.90700000e+03 
95.570   1.91300000e+03 
95.534   1.97900000e+03 
95.498   1.93100000e+03 
95.462   1.99300000e+03 
95.426   1.92600000e+03 
95.390   1.92300000e+03 
95.354   2.04200000e+03 
95.318   2.04000000e+03 
95.282   2.04900000e+03 
95.246   2.11100000e+03 
95.210   2.04500000e+03 
95.174   1.97300000e+03 
95.138   2.04800000e+03 
95.102   1.98600000e+03 
95.066   2.01500000e+03 
95.030   1.91000000e+03 
94.995   1.91600000e+03 
94.959   1.81400000e+03 
94.923   1.76700000e+03 
94.887   1.80900000e+03 
94.851   1.70200000e+03 
94.815   1.60100000e+03 
94.779   1.53900000e+03 
94.743   1.48600000e+03 
94.707   1.39600000e+03 
94.671   1.42500000e+03 
94.635   1.33600000e+03 
94.599   1.18000000e+03 
94.563   1.10200000e+03 
94.527   1.06900000e+03 
94.491   1.01700000e+03 
94.455   9.49000000e+02 
94.420   8.72000000e+02 
94.384   8.63000000e+02 
94.348   8.11000000e+02 
94.312   7.37000000e+02 
94.276   7.03000000e+02 
94.240   6.59000000e+02 
94.204   6.78000000e+02 
94.168   6.21000000e+02 
94.132   5.74000000e+02 
94.096   5.83000000e+02 
94.060   5.43000000e+02 
94.024   5.35000000e+02 
93.988   5.59000000e+02 
93.952   5.15000000e+02 
93.916   5.43000000e+02 
93.880   5.56000000e+02 
93.845   5.34000000e+02 
93.809   5.50000000e+02 
93.773   5.29000000e+02 
93.737   5.24000000e+02 
93.701   5.62000000e+02 
93.665   5.17000000e+02 
93.629   5.63000000e+02 
93.593   5.46000000e+02 
93.557   5.76000000e+02 
93.521   5.32000000e+02 
93.485   5.89000000e+02 
93.449   5.70000000e+02 
93.413   6.27000000e+02 
93.377   6.55000000e+02 
93.341   6.75000000e+02 
93.305   6.67000000e+02 
93.270   6.63000000e+02 
93.234   7.48000000e+02 
93.198   7.22000000e+02 
93.162   7.22000000e+02 
93.126   7.43000000e+02 
93.090   8.48000000e+02 
93.054   8.16000000e+02 
93.018   8.60000000e+02 
92.982   9.21000000e+02 
92.946   8.94000000e+02 
92.910   9.36000000e+02 
92.874   9.86000000e+02 
92.838   9.90000000e+02 
92.802   1.12900000e+03 
92.766   1.13700000e+03 
92.730   1.17300000e+03 
92.695   1.16800000e+03 
92.659   1.26500000e+03 
92.623   1.27800000e+03 
92.587   1.34800000e+03 
92.551   1.47500000e+03 
92.515   1.41500000e+03 
92.479   1.45000000e+03 
92.443   1.66500000e+03 
92.407   1.52100000e+03 
92.371   1.67700000e+03 
92.335   1.59300000e+03 
92.299   1.67900000e+03 
92.263   1.80800000e+03 
92.227   1.88700000e+03 
92.191   1.88900000e+03 
92.155   1.94900000e+03 
92.120   1.96800000e+03 
92.084   2.04600000e+03 
92.048   2.03500000e+03 
92.012   2.19800000e+03 
91.976   2.18100000e+03 
91.940   2.24400000e+03 
91.904   2.27300000e+03 
91.868   2.31300000e+03 
91.832   2.28800000e+03 
91.796   2.29600000e+03 
91.760   2.30600000e+03 
91.724   2.38400000e+03 
91.688   2.47100000e+03 
91.652   2.45200000e+03 
91.616   2.36900000e+03 
91.580   2.35700000e+03 
91.545   2.50600000e+03 
91.509   2.38500000e+03 
91.473   2.32700000e+03 
91.437   2.31100000e+03 
91.401   2.23000000e+03 
91.365   2.22900000e+03 
91.329   2.17900000e+03 
91.293   2.15900000e+03 
91.257   2.10100000e+03 
91.221   2.09100000e+03 
91.185   1.90600000e+03 
91.149   1.85900000e+03 
91.113   1.71500000e+03 
91.077   1.72300000e+03 
91.041   1.60900000e+03 
91.005   1.48600000e+03 
90.970   1.32600000e+03 
90.934   1.26700000e+03 
90.898   1.25200000e+03 
90.862   1.10400000e+03 
90.826   1.00500000e+03 
90.790   9.44000000e+02 
90.754   8.98000000e+02 
90.718   8.11000000e+02 
90.682   7.24000000e+02 
90.646   6.52000000e+02 
90.610   6.18000000e+02 
90.574   5.26000000e+02 
90.538   5.14000000e+02 
90.502   4.51000000e+02 
90.466   4.40000000e+02 
90.430   4.27000000e+02 
90.395   3.96000000e+02 
90.359   3.77000000e+02 
90.323   3.80000000e+02 
90.287   3.46000000e+02 
90.251   3.09000000e+02 
90.215   2.98000000e+02 
90.179   3.04000000e+02 
90.143   2.67000000e+02 
90.107   2.46000000e+02 
90.071   2.60000000e+02 
90.035   2.62000000e+02 
89.999   2.69000000e+02 
89.963   2.37000000e+02 
89.927   2.40000000e+02 
89.891   2.67000000e+02 
89.855   2.28000000e+02 
89.820   2.38000000e+02 
89.784   2.33000000e+02 
89.748   2.08000000e+02 
89.712   2.29000000e+02 
89.676   2.40000000e+02 
89.640   2.13000000e+02 
89.604   2.29000000e+02 
89.568   2.28000000e+02 
89.532   2.23000000e+02 
89.496   1.97000000e+02 
89.460   1.94000000e+02 
89.424   2.18000000e+02 
89.388   1.97000000e+02 
89.352   1.99000000e+02 
89.316   2.00000000e+02 
89.280   1.87000000e+02 
89.245   1.78000000e+02 
89.209   2.01000000e+02 
89.173   1.86000000e+02 
89.137   1.85000000e+02 
89.101   1.75000000e+02 
89.065   2.06000000e+02 
89.029   1.88000000e+02 
88.993   1.96000000e+02 
88.957   1.95000000e+02 
88.921   1.73000000e+02 
88.885   1.96000000e+02 
88.849   2.11000000e+02 
88.813   1.81000000e+02 
88.777   1.62000000e+02 
88.741   1.70000000e+02 
88.705   1.97000000e+02 
88.670   1.76000000e+02 
88.634   1.76000000e+02 
88.598   1.84000000e+02 
88.562   1.62000000e+02 
88.526   1.75000000e+02 
88.490   1.67000000e+02 
88.454   1.80000000e+02 
88.418   1.70000000e+02 
88.382   1.75000000e+02 
88.346   1.72000000e+02 
88.310   1.57000000e+02 
88.274   1.94000000e+02 
88.238   1.92000000e+02 
88.202   1.66000000e+02 
88.166   1.70000000e+02 
88.130   1.64000000e+02 
88.095   1.45000000e+02 
88.059   1.74000000e+02 
88.023   1.88000000e+02 

