EXPERIMENT FILE
Version = 2

[ Experiment Parameters ]
Experiment Description= <none> 
Number_of_Regions_in_Experiment= 1 

Original_File_name= C:\alexesca\data\10222012_Au _4f_59nuetral+36_Mono225.xps 
Instrument= HP ESCA West
Date= 10-22-2012
Time=  13:33:13

[ Layer Parameters ]
Layer_Type= XPS

[ Region 1 Parameters ]
Region_Description = Au 4f Dithered Scan                
BEcenter(eV) = 93.000000
BEwidth(eV) = 10.000000
BEstep(eV) = 0.035937
Dwell_Time(sec) = 1.000000
N_o_scans = 1  
N_o_Channels = 278  
Scan_mode = 0  (DITHERED)

[ L= 1 R= 1 ]
BEcenter= 93.000  
BEwidth= -9.955  
Excitation= 1486.600
Time_p_channel= 256.000 
Size= 278
97.977   5.59000000e+02 
97.941   6.03000000e+02 
97.905   6.08000000e+02 
97.870   6.06000000e+02 
97.834   6.00000000e+02 
97.798   5.95000000e+02 
97.762   6.68000000e+02 
97.726   5.83000000e+02 
97.690   6.86000000e+02 
97.654   6.98000000e+02 
97.618   6.68000000e+02 
97.582   6.68000000e+02 
97.546   6.85000000e+02 
97.510   6.99000000e+02 
97.474   8.03000000e+02 
97.438   7.34000000e+02 
97.402   7.31000000e+02 
97.366   7.95000000e+02 
97.330   8.65000000e+02 
97.295   8.42000000e+02 
97.259   8.42000000e+02 
97.223   8.76000000e+02 
97.187   9.36000000e+02 
97.151   9.63000000e+02 
97.115   9.79000000e+02 
97.079   1.03200000e+03 
97.043   1.05900000e+03 
97.007   1.08300000e+03 
96.971   1.11800000e+03 
96.935   1.21300000e+03 
96.899   1.19100000e+03 
96.863   1.24800000e+03 
96.827   1.31200000e+03 
96.791   1.35400000e+03 
96.755   1.43600000e+03 
96.720   1.48800000e+03 
96.684   1.59900000e+03 
96.648   1.47200000e+03 
96.612   1.58700000e+03 
96.576   1.74100000e+03 
96.540   1.65400000e+03 
96.504   1.81800000e+03 
96.468   1.81200000e+03 
96.432   1.85100000e+03 
96.396   1.82000000e+03 
96.360   1.91900000e+03 
96.324   1.97200000e+03 
96.288   1.97100000e+03 
96.252   1.96200000e+03 
96.216   2.11000000e+03 
96.180   2.12400000e+03 
96.145   2.12900000e+03 
96.109   2.03300000e+03 
96.073   2.14800000e+03 
96.037   2.12100000e+03 
96.001   2.20700000e+03 
95.965   2.19300000e+03 
95.929   2.09900000e+03 
95.893   2.17400000e+03 
95.857   2.13500000e+03 
95.821   2.20200000e+03 
95.785   2.22000000e+03 
95.749   2.18100000e+03 
95.713   2.13400000e+03 
95.677   2.18300000e+03 
95.641   2.08600000e+03 
95.605   2.18400000e+03 
95.570   2.20900000e+03 
95.534   2.08400000e+03 
95.498   2.13000000e+03 
95.462   2.13200000e+03 
95.426   2.05800000e+03 
95.390   2.11300000e+03 
95.354   2.07200000e+03 
95.318   2.01300000e+03 
95.282   2.02300000e+03 
95.246   2.06500000e+03 
95.210   1.88800000e+03 
95.174   1.97100000e+03 
95.138   1.92800000e+03 
95.102   1.98400000e+03 
95.066   1.96600000e+03 
95.030   1.81800000e+03 
94.995   1.80400000e+03 
94.959   1.89700000e+03 
94.923   1.66600000e+03 
94.887   1.69400000e+03 
94.851   1.67500000e+03 
94.815   1.66100000e+03 
94.779   1.67900000e+03 
94.743   1.49500000e+03 
94.707   1.46800000e+03 
94.671   1.48800000e+03 
94.635   1.42400000e+03 
94.599   1.39400000e+03 
94.563   1.23300000e+03 
94.527   1.21200000e+03 
94.491   1.17600000e+03 
94.455   1.18100000e+03 
94.420   1.07200000e+03 
94.384   1.04900000e+03 
94.348   1.00500000e+03 
94.312   8.66000000e+02 
94.276   8.91000000e+02 
94.240   8.83000000e+02 
94.204   8.24000000e+02 
94.168   8.11000000e+02 
94.132   7.87000000e+02 
94.096   7.46000000e+02 
94.060   7.61000000e+02 
94.024   7.57000000e+02 
93.988   7.60000000e+02 
93.952   7.60000000e+02 
93.916   7.45000000e+02 
93.880   7.34000000e+02 
93.845   7.50000000e+02 
93.809   7.56000000e+02 
93.773   7.96000000e+02 
93.737   8.33000000e+02 
93.701   9.05000000e+02 
93.665   8.96000000e+02 
93.629   9.06000000e+02 
93.593   9.41000000e+02 
93.557   9.69000000e+02 
93.521   9.88000000e+02 
93.485   9.76000000e+02 
93.449   1.07200000e+03 
93.413   1.11400000e+03 
93.377   1.22600000e+03 
93.341   1.12300000e+03 
93.305   1.20800000e+03 
93.270   1.27300000e+03 
93.234   1.32700000e+03 
93.198   1.39000000e+03 
93.162   1.38200000e+03 
93.126   1.45800000e+03 
93.090   1.50000000e+03 
93.054   1.67100000e+03 
93.018   1.66500000e+03 
92.982   1.76500000e+03 
92.946   1.85400000e+03 
92.910   1.87600000e+03 
92.874   1.91500000e+03 
92.838   1.98400000e+03 
92.802   2.08000000e+03 
92.766   2.09600000e+03 
92.730   2.19100000e+03 
92.695   2.18500000e+03 
92.659   2.26100000e+03 
92.623   2.28700000e+03 
92.587   2.35100000e+03 
92.551   2.37200000e+03 
92.515   2.47400000e+03 
92.479   2.44300000e+03 
92.443   2.51200000e+03 
92.407   2.57100000e+03 
92.371   2.52400000e+03 
92.335   2.38300000e+03 
92.299   2.57400000e+03 
92.263   2.48800000e+03 
92.227   2.61900000e+03 
92.191   2.62000000e+03 
92.155   2.51800000e+03 
92.120   2.52000000e+03 
92.084   2.51400000e+03 
92.048   2.49600000e+03 
92.012   2.44200000e+03 
91.976   2.51500000e+03 
91.940   2.51800000e+03 
91.904   2.45600000e+03 
91.868   2.47500000e+03 
91.832   2.38700000e+03 
91.796   2.48900000e+03 
91.760   2.42400000e+03 
91.724   2.31000000e+03 
91.688   2.31300000e+03 
91.652   2.33400000e+03 
91.616   2.34800000e+03 
91.580   2.24700000e+03 
91.545   2.17300000e+03 
91.509   2.14800000e+03 
91.473   2.19400000e+03 
91.437   2.23300000e+03 
91.401   2.12000000e+03 
91.365   2.12400000e+03 
91.329   2.05900000e+03 
91.293   2.03500000e+03 
91.257   2.02000000e+03 
91.221   1.91500000e+03 
91.185   1.87200000e+03 
91.149   1.72000000e+03 
91.113   1.71800000e+03 
91.077   1.72700000e+03 
91.041   1.64600000e+03 
91.005   1.56800000e+03 
90.970   1.53100000e+03 
90.934   1.44500000e+03 
90.898   1.33700000e+03 
90.862   1.24300000e+03 
90.826   1.14300000e+03 
90.790   1.07100000e+03 
90.754   1.01500000e+03 
90.718   9.00000000e+02 
90.682   8.57000000e+02 
90.646   7.60000000e+02 
90.610   7.61000000e+02 
90.574   6.70000000e+02 
90.538   6.79000000e+02 
90.502   5.77000000e+02 
90.466   5.57000000e+02 
90.430   4.83000000e+02 
90.395   4.61000000e+02 
90.359   4.31000000e+02 
90.323   4.19000000e+02 
90.287   4.18000000e+02 
90.251   3.75000000e+02 
90.215   3.74000000e+02 
90.179   3.34000000e+02 
90.143   3.43000000e+02 
90.107   3.53000000e+02 
90.071   3.14000000e+02 
90.035   3.21000000e+02 
89.999   3.10000000e+02 
89.963   2.86000000e+02 
89.927   2.72000000e+02 
89.891   2.45000000e+02 
89.855   2.55000000e+02 
89.820   2.75000000e+02 
89.784   2.75000000e+02 
89.748   2.74000000e+02 
89.712   2.41000000e+02 
89.676   2.71000000e+02 
89.640   2.45000000e+02 
89.604   2.47000000e+02 
89.568   2.43000000e+02 
89.532   2.49000000e+02 
89.496   2.34000000e+02 
89.460   2.50000000e+02 
89.424   2.35000000e+02 
89.388   2.20000000e+02 
89.352   2.26000000e+02 
89.316   2.20000000e+02 
89.280   2.54000000e+02 
89.245   2.19000000e+02 
89.209   2.09000000e+02 
89.173   2.06000000e+02 
89.137   2.24000000e+02 
89.101   2.33000000e+02 
89.065   2.29000000e+02 
89.029   2.22000000e+02 
88.993   1.99000000e+02 
88.957   2.29000000e+02 
88.921   2.32000000e+02 
88.885   2.09000000e+02 
88.849   2.21000000e+02 
88.813   2.03000000e+02 
88.777   2.02000000e+02 
88.741   1.90000000e+02 
88.705   2.19000000e+02 
88.670   1.95000000e+02 
88.634   1.96000000e+02 
88.598   1.98000000e+02 
88.562   2.13000000e+02 
88.526   2.12000000e+02 
88.490   1.96000000e+02 
88.454   1.87000000e+02 
88.418   2.14000000e+02 
88.382   1.90000000e+02 
88.346   2.00000000e+02 
88.310   1.96000000e+02 
88.274   1.98000000e+02 
88.238   2.12000000e+02 
88.202   1.96000000e+02 
88.166   1.85000000e+02 
88.130   2.32000000e+02 
88.095   2.17000000e+02 
88.059   1.91000000e+02 
88.023   2.00000000e+02 

