EXPERIMENT FILE
Version = 2

[ Experiment Parameters ]
Experiment Description= <none> 
Number_of_Regions_in_Experiment= 1 

Original_File_name= C:\alexesca\data\10222012_Au _4f_59nuetral+36_Mono222.xps 
Instrument= HP ESCA West
Date= 10-22-2012
Time=  15:33:42

[ Layer Parameters ]
Layer_Type= XPS

[ Region 1 Parameters ]
Region_Description = Au 4f Dithered Scan                
BEcenter(eV) = 93.000000
BEwidth(eV) = 10.000000
BEstep(eV) = 0.035937
Dwell_Time(sec) = 1.000000
N_o_scans = 1  
N_o_Channels = 278  
Scan_mode = 0  (DITHERED)

[ L= 1 R= 1 ]
BEcenter= 93.000  
BEwidth= -9.955  
Excitation= 1486.600
Time_p_channel= 256.000 
Size= 278
97.977   5.78000000e+02 
97.941   6.10000000e+02 
97.905   5.95000000e+02 
97.870   6.09000000e+02 
97.834   6.27000000e+02 
97.798   6.22000000e+02 
97.762   6.15000000e+02 
97.726   6.33000000e+02 
97.690   6.03000000e+02 
97.654   6.19000000e+02 
97.618   6.69000000e+02 
97.582   6.52000000e+02 
97.546   6.34000000e+02 
97.510   7.24000000e+02 
97.474   6.94000000e+02 
97.438   7.04000000e+02 
97.402   6.96000000e+02 
97.366   7.67000000e+02 
97.330   7.34000000e+02 
97.295   7.32000000e+02 
97.259   7.63000000e+02 
97.223   7.79000000e+02 
97.187   8.09000000e+02 
97.151   7.79000000e+02 
97.115   8.70000000e+02 
97.079   8.52000000e+02 
97.043   8.90000000e+02 
97.007   9.02000000e+02 
96.971   9.52000000e+02 
96.935   1.01300000e+03 
96.899   1.01300000e+03 
96.863   1.09000000e+03 
96.827   1.07900000e+03 
96.791   1.11400000e+03 
96.755   1.20600000e+03 
96.720   1.22700000e+03 
96.684   1.29500000e+03 
96.648   1.33700000e+03 
96.612   1.35900000e+03 
96.576   1.39500000e+03 
96.540   1.51200000e+03 
96.504   1.55000000e+03 
96.468   1.53000000e+03 
96.432   1.55000000e+03 
96.396   1.60100000e+03 
96.360   1.69300000e+03 
96.324   1.81000000e+03 
96.288   1.76000000e+03 
96.252   1.74700000e+03 
96.216   1.93500000e+03 
96.180   1.93900000e+03 
96.145   1.92800000e+03 
96.109   1.98100000e+03 
96.073   1.98500000e+03 
96.037   2.02500000e+03 
96.001   2.03300000e+03 
95.965   2.02600000e+03 
95.929   2.12400000e+03 
95.893   2.07000000e+03 
95.857   2.12900000e+03 
95.821   2.13000000e+03 
95.785   2.17800000e+03 
95.749   2.18200000e+03 
95.713   2.19900000e+03 
95.677   2.17800000e+03 
95.641   2.16600000e+03 
95.605   2.22100000e+03 
95.570   2.23800000e+03 
95.534   2.22100000e+03 
95.498   2.22700000e+03 
95.462   2.29900000e+03 
95.426   2.25900000e+03 
95.390   2.33700000e+03 
95.354   2.16700000e+03 
95.318   2.28700000e+03 
95.282   2.18600000e+03 
95.246   2.15100000e+03 
95.210   2.23100000e+03 
95.174   2.24000000e+03 
95.138   2.27200000e+03 
95.102   2.15600000e+03 
95.066   2.26600000e+03 
95.030   2.22200000e+03 
94.995   2.16700000e+03 
94.959   2.12100000e+03 
94.923   2.15600000e+03 
94.887   2.13200000e+03 
94.851   2.10800000e+03 
94.815   2.07700000e+03 
94.779   2.01900000e+03 
94.743   2.05900000e+03 
94.707   1.94900000e+03 
94.671   2.00900000e+03 
94.635   1.90200000e+03 
94.599   1.78900000e+03 
94.563   1.86000000e+03 
94.527   1.71800000e+03 
94.491   1.73200000e+03 
94.455   1.61800000e+03 
94.420   1.60100000e+03 
94.384   1.59200000e+03 
94.348   1.52200000e+03 
94.312   1.41800000e+03 
94.276   1.37400000e+03 
94.240   1.33500000e+03 
94.204   1.20500000e+03 
94.168   1.20800000e+03 
94.132   1.05700000e+03 
94.096   1.05400000e+03 
94.060   1.03000000e+03 
94.024   9.79000000e+02 
93.988   9.20000000e+02 
93.952   9.18000000e+02 
93.916   8.33000000e+02 
93.880   8.55000000e+02 
93.845   8.41000000e+02 
93.809   8.47000000e+02 
93.773   8.33000000e+02 
93.737   7.98000000e+02 
93.701   7.88000000e+02 
93.665   8.19000000e+02 
93.629   8.01000000e+02 
93.593   8.03000000e+02 
93.557   8.25000000e+02 
93.521   8.59000000e+02 
93.485   8.87000000e+02 
93.449   9.36000000e+02 
93.413   9.60000000e+02 
93.377   9.96000000e+02 
93.341   1.02500000e+03 
93.305   1.01200000e+03 
93.270   1.02200000e+03 
93.234   1.13700000e+03 
93.198   1.19700000e+03 
93.162   1.20100000e+03 
93.126   1.26800000e+03 
93.090   1.30000000e+03 
93.054   1.40600000e+03 
93.018   1.36900000e+03 
92.982   1.45000000e+03 
92.946   1.54800000e+03 
92.910   1.53600000e+03 
92.874   1.66200000e+03 
92.838   1.71700000e+03 
92.802   1.74400000e+03 
92.766   1.85100000e+03 
92.730   1.80100000e+03 
92.695   1.95100000e+03 
92.659   1.99200000e+03 
92.623   1.99800000e+03 
92.587   2.04000000e+03 
92.551   2.18300000e+03 
92.515   2.22900000e+03 
92.479   2.24700000e+03 
92.443   2.24700000e+03 
92.407   2.29600000e+03 
92.371   2.43100000e+03 
92.335   2.38700000e+03 
92.299   2.35500000e+03 
92.263   2.41600000e+03 
92.227   2.47400000e+03 
92.191   2.51800000e+03 
92.155   2.52000000e+03 
92.120   2.56400000e+03 
92.084   2.57200000e+03 
92.048   2.60500000e+03 
92.012   2.57500000e+03 
91.976   2.55900000e+03 
91.940   2.65500000e+03 
91.904   2.60500000e+03 
91.868   2.52600000e+03 
91.832   2.64800000e+03 
91.796   2.55500000e+03 
91.760   2.55800000e+03 
91.724   2.56200000e+03 
91.688   2.67900000e+03 
91.652   2.65500000e+03 
91.616   2.52200000e+03 
91.580   2.55700000e+03 
91.545   2.62500000e+03 
91.509   2.56200000e+03 
91.473   2.55800000e+03 
91.437   2.62500000e+03 
91.401   2.47200000e+03 
91.365   2.51900000e+03 
91.329   2.53400000e+03 
91.293   2.40000000e+03 
91.257   2.40300000e+03 
91.221   2.38900000e+03 
91.185   2.40500000e+03 
91.149   2.32200000e+03 
91.113   2.40400000e+03 
91.077   2.29000000e+03 
91.041   2.23800000e+03 
91.005   2.17600000e+03 
90.970   2.05900000e+03 
90.934   2.04900000e+03 
90.898   2.03300000e+03 
90.862   1.96500000e+03 
90.826   1.78700000e+03 
90.790   1.79000000e+03 
90.754   1.64800000e+03 
90.718   1.67500000e+03 
90.682   1.50500000e+03 
90.646   1.44900000e+03 
90.610   1.42600000e+03 
90.574   1.27800000e+03 
90.538   1.11800000e+03 
90.502   1.13900000e+03 
90.466   9.66000000e+02 
90.430   9.83000000e+02 
90.395   8.56000000e+02 
90.359   7.66000000e+02 
90.323   7.49000000e+02 
90.287   6.60000000e+02 
90.251   6.26000000e+02 
90.215   5.51000000e+02 
90.179   4.89000000e+02 
90.143   4.82000000e+02 
90.107   4.69000000e+02 
90.071   4.65000000e+02 
90.035   3.97000000e+02 
89.999   3.90000000e+02 
89.963   3.64000000e+02 
89.927   3.67000000e+02 
89.891   3.67000000e+02 
89.855   3.64000000e+02 
89.820   3.49000000e+02 
89.784   3.06000000e+02 
89.748   3.28000000e+02 
89.712   3.45000000e+02 
89.676   3.15000000e+02 
89.640   3.12000000e+02 
89.604   2.79000000e+02 
89.568   2.89000000e+02 
89.532   2.83000000e+02 
89.496   2.81000000e+02 
89.460   2.83000000e+02 
89.424   2.79000000e+02 
89.388   2.86000000e+02 
89.352   2.89000000e+02 
89.316   2.49000000e+02 
89.280   2.49000000e+02 
89.245   2.56000000e+02 
89.209   2.49000000e+02 
89.173   2.67000000e+02 
89.137   2.62000000e+02 
89.101   2.47000000e+02 
89.065   2.56000000e+02 
89.029   2.26000000e+02 
88.993   2.53000000e+02 
88.957   2.44000000e+02 
88.921   2.40000000e+02 
88.885   2.33000000e+02 
88.849   2.32000000e+02 
88.813   2.40000000e+02 
88.777   2.25000000e+02 
88.741   2.11000000e+02 
88.705   2.15000000e+02 
88.670   2.29000000e+02 
88.634   1.96000000e+02 
88.598   2.10000000e+02 
88.562   2.39000000e+02 
88.526   2.26000000e+02 
88.490   2.05000000e+02 
88.454   2.36000000e+02 
88.418   1.87000000e+02 
88.382   2.13000000e+02 
88.346   2.17000000e+02 
88.310   2.06000000e+02 
88.274   2.27000000e+02 
88.238   1.82000000e+02 
88.202   2.36000000e+02 
88.166   2.06000000e+02 
88.130   2.25000000e+02 
88.095   2.01000000e+02 
88.059   2.17000000e+02 
88.023   2.12000000e+02 

