EXPERIMENT FILE
Version = 2

[ Experiment Parameters ]
Experiment Description= <none> 
Number_of_Regions_in_Experiment= 1 

Original_File_name= C:\alexesca\data\10232012_Au _4f_61nuetral+34_Mono230.xps 
Instrument= HP ESCA West
Date= 10-23-2012
Time=  14:56:17

[ Layer Parameters ]
Layer_Type= XPS

[ Region 1 Parameters ]
Region_Description = Au 4f Dithered Scan                
BEcenter(eV) = 93.000000
BEwidth(eV) = 10.000000
BEstep(eV) = 0.035937
Dwell_Time(sec) = 1.000000
N_o_scans = 1  
N_o_Channels = 278  
Scan_mode = 0  (DITHERED)

[ L= 1 R= 1 ]
BEcenter= 93.000  
BEwidth= -9.955  
Excitation= 1486.600
Time_p_channel= 256.000 
Size= 278
97.977   5.92000000e+02 
97.941   5.78000000e+02 
97.905   5.81000000e+02 
97.870   5.85000000e+02 
97.834   5.76000000e+02 
97.798   6.12000000e+02 
97.762   6.10000000e+02 
97.726   6.15000000e+02 
97.690   6.08000000e+02 
97.654   6.35000000e+02 
97.618   5.78000000e+02 
97.582   7.26000000e+02 
97.546   6.51000000e+02 
97.510   7.06000000e+02 
97.474   7.16000000e+02 
97.438   6.81000000e+02 
97.402   6.63000000e+02 
97.366   7.36000000e+02 
97.330   7.85000000e+02 
97.295   7.99000000e+02 
97.259   7.95000000e+02 
97.223   8.44000000e+02 
97.187   8.92000000e+02 
97.151   9.19000000e+02 
97.115   8.75000000e+02 
97.079   9.71000000e+02 
97.043   9.74000000e+02 
97.007   1.04600000e+03 
96.971   1.08900000e+03 
96.935   1.13300000e+03 
96.899   1.12300000e+03 
96.863   1.22100000e+03 
96.827   1.22300000e+03 
96.791   1.28500000e+03 
96.755   1.29200000e+03 
96.720   1.41900000e+03 
96.684   1.37500000e+03 
96.648   1.41500000e+03 
96.612   1.46000000e+03 
96.576   1.45600000e+03 
96.540   1.56500000e+03 
96.504   1.59600000e+03 
96.468   1.58400000e+03 
96.432   1.69100000e+03 
96.396   1.65400000e+03 
96.360   1.70400000e+03 
96.324   1.77200000e+03 
96.288   1.80300000e+03 
96.252   1.80100000e+03 
96.216   1.85100000e+03 
96.180   1.86900000e+03 
96.145   1.91100000e+03 
96.109   1.87000000e+03 
96.073   1.92400000e+03 
96.037   1.89700000e+03 
96.001   1.94100000e+03 
95.965   1.88400000e+03 
95.929   1.93700000e+03 
95.893   1.93300000e+03 
95.857   1.98500000e+03 
95.821   2.07000000e+03 
95.785   1.99800000e+03 
95.749   2.03400000e+03 
95.713   1.96600000e+03 
95.677   1.98600000e+03 
95.641   1.96400000e+03 
95.605   2.05100000e+03 
95.570   2.02600000e+03 
95.534   2.02500000e+03 
95.498   1.98600000e+03 
95.462   1.94200000e+03 
95.426   1.98900000e+03 
95.390   2.01400000e+03 
95.354   2.02200000e+03 
95.318   2.10700000e+03 
95.282   2.02300000e+03 
95.246   2.04000000e+03 
95.210   1.93300000e+03 
95.174   1.90100000e+03 
95.138   2.00400000e+03 
95.102   1.89100000e+03 
95.066   1.93500000e+03 
95.030   1.87000000e+03 
94.995   1.82800000e+03 
94.959   1.81700000e+03 
94.923   1.81100000e+03 
94.887   1.78900000e+03 
94.851   1.77700000e+03 
94.815   1.68700000e+03 
94.779   1.62000000e+03 
94.743   1.59000000e+03 
94.707   1.50600000e+03 
94.671   1.55600000e+03 
94.635   1.43300000e+03 
94.599   1.46700000e+03 
94.563   1.34700000e+03 
94.527   1.32400000e+03 
94.491   1.25500000e+03 
94.455   1.22500000e+03 
94.420   1.13500000e+03 
94.384   1.08200000e+03 
94.348   1.00000000e+03 
94.312   1.02000000e+03 
94.276   9.08000000e+02 
94.240   8.99000000e+02 
94.204   8.51000000e+02 
94.168   8.35000000e+02 
94.132   8.22000000e+02 
94.096   7.97000000e+02 
94.060   7.59000000e+02 
94.024   7.53000000e+02 
93.988   7.65000000e+02 
93.952   7.35000000e+02 
93.916   7.80000000e+02 
93.880   7.61000000e+02 
93.845   7.27000000e+02 
93.809   7.89000000e+02 
93.773   7.47000000e+02 
93.737   7.39000000e+02 
93.701   7.93000000e+02 
93.665   8.42000000e+02 
93.629   8.98000000e+02 
93.593   8.79000000e+02 
93.557   9.28000000e+02 
93.521   9.34000000e+02 
93.485   9.27000000e+02 
93.449   9.92000000e+02 
93.413   1.06900000e+03 
93.377   1.07500000e+03 
93.341   1.05700000e+03 
93.305   1.12600000e+03 
93.270   1.24500000e+03 
93.234   1.27200000e+03 
93.198   1.28000000e+03 
93.162   1.30400000e+03 
93.126   1.41700000e+03 
93.090   1.43800000e+03 
93.054   1.52000000e+03 
93.018   1.61300000e+03 
92.982   1.67800000e+03 
92.946   1.74400000e+03 
92.910   1.68000000e+03 
92.874   1.72700000e+03 
92.838   1.72300000e+03 
92.802   1.85800000e+03 
92.766   1.92300000e+03 
92.730   1.87500000e+03 
92.695   1.95700000e+03 
92.659   2.07000000e+03 
92.623   1.90500000e+03 
92.587   2.07200000e+03 
92.551   2.08000000e+03 
92.515   2.13900000e+03 
92.479   2.16900000e+03 
92.443   2.17700000e+03 
92.407   2.16400000e+03 
92.371   2.24700000e+03 
92.335   2.23800000e+03 
92.299   2.21300000e+03 
92.263   2.27200000e+03 
92.227   2.25700000e+03 
92.191   2.32300000e+03 
92.155   2.36400000e+03 
92.120   2.28900000e+03 
92.084   2.27800000e+03 
92.048   2.26100000e+03 
92.012   2.31100000e+03 
91.976   2.34700000e+03 
91.940   2.31300000e+03 
91.904   2.30800000e+03 
91.868   2.31600000e+03 
91.832   2.29400000e+03 
91.796   2.35500000e+03 
91.760   2.44100000e+03 
91.724   2.39000000e+03 
91.688   2.28900000e+03 
91.652   2.35900000e+03 
91.616   2.28800000e+03 
91.580   2.29900000e+03 
91.545   2.22200000e+03 
91.509   2.39100000e+03 
91.473   2.30200000e+03 
91.437   2.16800000e+03 
91.401   2.15000000e+03 
91.365   2.20300000e+03 
91.329   2.07100000e+03 
91.293   2.09400000e+03 
91.257   2.00700000e+03 
91.221   1.91700000e+03 
91.185   1.83600000e+03 
91.149   1.90100000e+03 
91.113   1.82500000e+03 
91.077   1.78700000e+03 
91.041   1.71400000e+03 
91.005   1.62500000e+03 
90.970   1.55400000e+03 
90.934   1.46400000e+03 
90.898   1.40300000e+03 
90.862   1.37800000e+03 
90.826   1.25600000e+03 
90.790   1.19100000e+03 
90.754   1.08400000e+03 
90.718   1.04900000e+03 
90.682   9.66000000e+02 
90.646   8.70000000e+02 
90.610   7.43000000e+02 
90.574   7.09000000e+02 
90.538   6.60000000e+02 
90.502   5.97000000e+02 
90.466   5.38000000e+02 
90.430   5.25000000e+02 
90.395   5.21000000e+02 
90.359   4.65000000e+02 
90.323   4.26000000e+02 
90.287   4.07000000e+02 
90.251   3.75000000e+02 
90.215   3.52000000e+02 
90.179   3.48000000e+02 
90.143   3.54000000e+02 
90.107   3.24000000e+02 
90.071   3.20000000e+02 
90.035   2.98000000e+02 
89.999   3.17000000e+02 
89.963   2.85000000e+02 
89.927   2.89000000e+02 
89.891   2.82000000e+02 
89.855   2.74000000e+02 
89.820   2.94000000e+02 
89.784   2.70000000e+02 
89.748   2.53000000e+02 
89.712   2.35000000e+02 
89.676   2.80000000e+02 
89.640   2.66000000e+02 
89.604   2.49000000e+02 
89.568   2.74000000e+02 
89.532   2.28000000e+02 
89.496   2.37000000e+02 
89.460   2.08000000e+02 
89.424   2.35000000e+02 
89.388   2.02000000e+02 
89.352   2.16000000e+02 
89.316   2.34000000e+02 
89.280   2.27000000e+02 
89.245   2.47000000e+02 
89.209   2.09000000e+02 
89.173   2.11000000e+02 
89.137   2.27000000e+02 
89.101   2.25000000e+02 
89.065   1.99000000e+02 
89.029   2.23000000e+02 
88.993   2.35000000e+02 
88.957   2.03000000e+02 
88.921   1.99000000e+02 
88.885   2.43000000e+02 
88.849   1.99000000e+02 
88.813   1.91000000e+02 
88.777   2.05000000e+02 
88.741   2.07000000e+02 
88.705   2.10000000e+02 
88.670   2.15000000e+02 
88.634   2.05000000e+02 
88.598   2.16000000e+02 
88.562   1.98000000e+02 
88.526   1.81000000e+02 
88.490   1.94000000e+02 
88.454   2.09000000e+02 
88.418   2.32000000e+02 
88.382   1.62000000e+02 
88.346   2.14000000e+02 
88.310   1.78000000e+02 
88.274   1.97000000e+02 
88.238   1.73000000e+02 
88.202   1.96000000e+02 
88.166   2.01000000e+02 
88.130   1.98000000e+02 
88.095   1.88000000e+02 
88.059   1.71000000e+02 
88.023   1.71000000e+02 

