EXPERIMENT FILE
Version = 2

[ Experiment Parameters ]
Experiment Description= <none> 
Number_of_Regions_in_Experiment= 1 

Original_File_name= C:\alexesca\data\10232012_Au _4f_68nuetral-28_Mono218.xps 
Instrument= HP ESCA West
Date= 10-23-2012
Time=  16:56:56

[ Layer Parameters ]
Layer_Type= XPS

[ Region 1 Parameters ]
Region_Description = Au 4f Dithered Scan                
BEcenter(eV) = 93.000000
BEwidth(eV) = 10.000000
BEstep(eV) = 0.035937
Dwell_Time(sec) = 1.000000
N_o_scans = 1  
N_o_Channels = 278  
Scan_mode = 0  (DITHERED)

[ L= 1 R= 1 ]
BEcenter= 93.000  
BEwidth= -9.955  
Excitation= 1486.600
Time_p_channel= 256.000 
Size= 278
97.977   2.56000000e+02 
97.941   2.58000000e+02 
97.905   2.81000000e+02 
97.870   2.69000000e+02 
97.834   2.73000000e+02 
97.798   2.66000000e+02 
97.762   2.54000000e+02 
97.726   2.82000000e+02 
97.690   2.64000000e+02 
97.654   2.75000000e+02 
97.618   2.66000000e+02 
97.582   2.84000000e+02 
97.546   2.84000000e+02 
97.510   2.61000000e+02 
97.474   2.79000000e+02 
97.438   2.87000000e+02 
97.402   3.19000000e+02 
97.366   2.96000000e+02 
97.330   3.01000000e+02 
97.295   3.06000000e+02 
97.259   3.19000000e+02 
97.223   3.09000000e+02 
97.187   3.02000000e+02 
97.151   3.39000000e+02 
97.115   3.36000000e+02 
97.079   3.47000000e+02 
97.043   3.35000000e+02 
97.007   3.46000000e+02 
96.971   3.39000000e+02 
96.935   3.33000000e+02 
96.899   3.62000000e+02 
96.863   3.96000000e+02 
96.827   4.11000000e+02 
96.791   3.82000000e+02 
96.755   4.41000000e+02 
96.720   4.25000000e+02 
96.684   4.07000000e+02 
96.648   4.97000000e+02 
96.612   4.77000000e+02 
96.576   4.69000000e+02 
96.540   4.83000000e+02 
96.504   5.02000000e+02 
96.468   5.49000000e+02 
96.432   5.66000000e+02 
96.396   6.00000000e+02 
96.360   5.57000000e+02 
96.324   6.33000000e+02 
96.288   5.93000000e+02 
96.252   6.66000000e+02 
96.216   6.29000000e+02 
96.180   6.76000000e+02 
96.145   7.68000000e+02 
96.109   8.04000000e+02 
96.073   7.94000000e+02 
96.037   8.12000000e+02 
96.001   8.90000000e+02 
95.965   8.70000000e+02 
95.929   9.34000000e+02 
95.893   1.01800000e+03 
95.857   9.99000000e+02 
95.821   1.03900000e+03 
95.785   1.04400000e+03 
95.749   1.03800000e+03 
95.713   1.10700000e+03 
95.677   1.13700000e+03 
95.641   1.22200000e+03 
95.605   1.26500000e+03 
95.570   1.33700000e+03 
95.534   1.37800000e+03 
95.498   1.29700000e+03 
95.462   1.38900000e+03 
95.426   1.46700000e+03 
95.390   1.47300000e+03 
95.354   1.41700000e+03 
95.318   1.40500000e+03 
95.282   1.44100000e+03 
95.246   1.37900000e+03 
95.210   1.42700000e+03 
95.174   1.31100000e+03 
95.138   1.41400000e+03 
95.102   1.32600000e+03 
95.066   1.18800000e+03 
95.030   1.17400000e+03 
94.995   1.06200000e+03 
94.959   1.07800000e+03 
94.923   9.80000000e+02 
94.887   8.87000000e+02 
94.851   8.83000000e+02 
94.815   8.11000000e+02 
94.779   7.10000000e+02 
94.743   6.77000000e+02 
94.707   5.91000000e+02 
94.671   5.72000000e+02 
94.635   5.20000000e+02 
94.599   4.81000000e+02 
94.563   4.54000000e+02 
94.527   4.41000000e+02 
94.491   4.62000000e+02 
94.455   4.28000000e+02 
94.420   3.65000000e+02 
94.384   3.63000000e+02 
94.348   3.20000000e+02 
94.312   3.36000000e+02 
94.276   3.14000000e+02 
94.240   3.00000000e+02 
94.204   2.86000000e+02 
94.168   3.25000000e+02 
94.132   3.19000000e+02 
94.096   2.84000000e+02 
94.060   2.67000000e+02 
94.024   3.15000000e+02 
93.988   2.57000000e+02 
93.952   2.86000000e+02 
93.916   2.59000000e+02 
93.880   2.93000000e+02 
93.845   3.08000000e+02 
93.809   2.73000000e+02 
93.773   2.73000000e+02 
93.737   2.97000000e+02 
93.701   3.33000000e+02 
93.665   3.37000000e+02 
93.629   3.04000000e+02 
93.593   3.03000000e+02 
93.557   2.82000000e+02 
93.521   3.16000000e+02 
93.485   3.48000000e+02 
93.449   3.29000000e+02 
93.413   3.56000000e+02 
93.377   3.45000000e+02 
93.341   3.40000000e+02 
93.305   3.40000000e+02 
93.270   3.33000000e+02 
93.234   3.34000000e+02 
93.198   4.32000000e+02 
93.162   3.88000000e+02 
93.126   3.85000000e+02 
93.090   4.27000000e+02 
93.054   4.29000000e+02 
93.018   4.35000000e+02 
92.982   4.63000000e+02 
92.946   5.12000000e+02 
92.910   4.97000000e+02 
92.874   5.17000000e+02 
92.838   5.64000000e+02 
92.802   5.69000000e+02 
92.766   5.69000000e+02 
92.730   6.05000000e+02 
92.695   6.25000000e+02 
92.659   6.86000000e+02 
92.623   6.40000000e+02 
92.587   7.29000000e+02 
92.551   7.77000000e+02 
92.515   7.77000000e+02 
92.479   8.54000000e+02 
92.443   8.24000000e+02 
92.407   9.13000000e+02 
92.371   9.69000000e+02 
92.335   9.69000000e+02 
92.299   9.65000000e+02 
92.263   9.86000000e+02 
92.227   1.09200000e+03 
92.191   1.10700000e+03 
92.155   1.23300000e+03 
92.120   1.28300000e+03 
92.084   1.25600000e+03 
92.048   1.40900000e+03 
92.012   1.37900000e+03 
91.976   1.46900000e+03 
91.940   1.49900000e+03 
91.904   1.55000000e+03 
91.868   1.59500000e+03 
91.832   1.67700000e+03 
91.796   1.67900000e+03 
91.760   1.76600000e+03 
91.724   1.79500000e+03 
91.688   1.69200000e+03 
91.652   1.74600000e+03 
91.616   1.73500000e+03 
91.580   1.71000000e+03 
91.545   1.71800000e+03 
91.509   1.69200000e+03 
91.473   1.58100000e+03 
91.437   1.60200000e+03 
91.401   1.47700000e+03 
91.365   1.39400000e+03 
91.329   1.33900000e+03 
91.293   1.21600000e+03 
91.257   1.11400000e+03 
91.221   1.05600000e+03 
91.185   8.83000000e+02 
91.149   8.40000000e+02 
91.113   7.59000000e+02 
91.077   7.14000000e+02 
91.041   6.19000000e+02 
91.005   5.46000000e+02 
90.970   5.06000000e+02 
90.934   4.59000000e+02 
90.898   4.19000000e+02 
90.862   3.74000000e+02 
90.826   3.30000000e+02 
90.790   3.18000000e+02 
90.754   2.87000000e+02 
90.718   2.65000000e+02 
90.682   2.69000000e+02 
90.646   2.39000000e+02 
90.610   2.19000000e+02 
90.574   2.43000000e+02 
90.538   2.06000000e+02 
90.502   2.15000000e+02 
90.466   2.39000000e+02 
90.430   1.85000000e+02 
90.395   1.87000000e+02 
90.359   1.81000000e+02 
90.323   1.77000000e+02 
90.287   1.61000000e+02 
90.251   1.64000000e+02 
90.215   1.74000000e+02 
90.179   1.49000000e+02 
90.143   1.57000000e+02 
90.107   1.63000000e+02 
90.071   1.57000000e+02 
90.035   1.49000000e+02 
89.999   1.33000000e+02 
89.963   1.53000000e+02 
89.927   1.42000000e+02 
89.891   1.36000000e+02 
89.855   1.59000000e+02 
89.820   1.51000000e+02 
89.784   1.26000000e+02 
89.748   1.18000000e+02 
89.712   1.15000000e+02 
89.676   1.34000000e+02 
89.640   1.27000000e+02 
89.604   1.19000000e+02 
89.568   1.16000000e+02 
89.532   1.35000000e+02 
89.496   1.16000000e+02 
89.460   1.24000000e+02 
89.424   1.10000000e+02 
89.388   1.25000000e+02 
89.352   1.23000000e+02 
89.316   1.34000000e+02 
89.280   1.31000000e+02 
89.245   1.09000000e+02 
89.209   1.12000000e+02 
89.173   1.09000000e+02 
89.137   1.10000000e+02 
89.101   1.22000000e+02 
89.065   1.18000000e+02 
89.029   1.11000000e+02 
88.993   1.15000000e+02 
88.957   1.09000000e+02 
88.921   1.13000000e+02 
88.885   1.09000000e+02 
88.849   1.05000000e+02 
88.813   1.30000000e+02 
88.777   1.14000000e+02 
88.741   1.11000000e+02 
88.705   1.12000000e+02 
88.670   1.09000000e+02 
88.634   9.60000000e+01 
88.598   9.70000000e+01 
88.562   1.06000000e+02 
88.526   1.02000000e+02 
88.490   1.10000000e+02 
88.454   1.05000000e+02 
88.418   9.70000000e+01 
88.382   1.13000000e+02 
88.346   1.07000000e+02 
88.310   1.35000000e+02 
88.274   1.08000000e+02 
88.238   7.60000000e+01 
88.202   1.09000000e+02 
88.166   1.18000000e+02 
88.130   1.17000000e+02 
88.095   1.08000000e+02 
88.059   1.00000000e+02 
88.023   9.50000000e+01 

