EXPERIMENT FILE
Version = 2

[ Experiment Parameters ]
Experiment Description= <none> 
Number_of_Regions_in_Experiment= 1 

Original_File_name= C:\alexesca\data\10232012_Au _4f_68nuetral+12_Mono222.xps 
Instrument= HP ESCA West
Date= 10-23-2012
Time=  16:28:37

[ Layer Parameters ]
Layer_Type= XPS

[ Region 1 Parameters ]
Region_Description = Au 4f Dithered Scan                
BEcenter(eV) = 93.000000
BEwidth(eV) = 10.000000
BEstep(eV) = 0.035937
Dwell_Time(sec) = 1.000000
N_o_scans = 1  
N_o_Channels = 278  
Scan_mode = 0  (DITHERED)

[ L= 1 R= 1 ]
BEcenter= 93.000  
BEwidth= -9.955  
Excitation= 1486.600
Time_p_channel= 256.000 
Size= 278
97.977   4.83000000e+02 
97.941   4.81000000e+02 
97.905   4.90000000e+02 
97.870   4.87000000e+02 
97.834   4.42000000e+02 
97.798   4.73000000e+02 
97.762   4.59000000e+02 
97.726   5.18000000e+02 
97.690   5.06000000e+02 
97.654   5.40000000e+02 
97.618   5.56000000e+02 
97.582   5.63000000e+02 
97.546   5.49000000e+02 
97.510   5.82000000e+02 
97.474   5.55000000e+02 
97.438   5.79000000e+02 
97.402   5.19000000e+02 
97.366   5.98000000e+02 
97.330   6.20000000e+02 
97.295   6.37000000e+02 
97.259   6.44000000e+02 
97.223   6.74000000e+02 
97.187   7.49000000e+02 
97.151   6.45000000e+02 
97.115   7.33000000e+02 
97.079   7.54000000e+02 
97.043   7.73000000e+02 
97.007   8.05000000e+02 
96.971   8.29000000e+02 
96.935   8.39000000e+02 
96.899   8.37000000e+02 
96.863   8.87000000e+02 
96.827   9.66000000e+02 
96.791   9.47000000e+02 
96.755   1.09000000e+03 
96.720   1.05000000e+03 
96.684   1.05000000e+03 
96.648   1.14200000e+03 
96.612   1.16700000e+03 
96.576   1.17800000e+03 
96.540   1.22100000e+03 
96.504   1.23400000e+03 
96.468   1.32100000e+03 
96.432   1.31700000e+03 
96.396   1.34200000e+03 
96.360   1.44300000e+03 
96.324   1.47900000e+03 
96.288   1.49600000e+03 
96.252   1.54100000e+03 
96.216   1.61200000e+03 
96.180   1.70800000e+03 
96.145   1.71900000e+03 
96.109   1.74600000e+03 
96.073   1.73700000e+03 
96.037   1.72200000e+03 
96.001   1.92200000e+03 
95.965   1.89200000e+03 
95.929   1.92700000e+03 
95.893   1.97100000e+03 
95.857   1.99800000e+03 
95.821   1.93900000e+03 
95.785   2.10700000e+03 
95.749   2.11600000e+03 
95.713   2.07800000e+03 
95.677   2.13100000e+03 
95.641   2.23500000e+03 
95.605   2.09600000e+03 
95.570   2.14900000e+03 
95.534   2.05200000e+03 
95.498   2.10100000e+03 
95.462   2.12100000e+03 
95.426   2.05900000e+03 
95.390   2.07600000e+03 
95.354   1.97500000e+03 
95.318   1.95900000e+03 
95.282   1.81400000e+03 
95.246   1.87300000e+03 
95.210   1.77900000e+03 
95.174   1.74600000e+03 
95.138   1.69500000e+03 
95.102   1.63700000e+03 
95.066   1.57200000e+03 
95.030   1.51700000e+03 
94.995   1.46300000e+03 
94.959   1.42500000e+03 
94.923   1.31100000e+03 
94.887   1.20300000e+03 
94.851   1.17100000e+03 
94.815   1.05300000e+03 
94.779   1.02400000e+03 
94.743   9.20000000e+02 
94.707   8.99000000e+02 
94.671   8.06000000e+02 
94.635   8.11000000e+02 
94.599   7.50000000e+02 
94.563   7.22000000e+02 
94.527   7.36000000e+02 
94.491   7.16000000e+02 
94.455   6.09000000e+02 
94.420   5.81000000e+02 
94.384   6.10000000e+02 
94.348   5.42000000e+02 
94.312   5.43000000e+02 
94.276   5.62000000e+02 
94.240   5.37000000e+02 
94.204   5.29000000e+02 
94.168   5.13000000e+02 
94.132   5.38000000e+02 
94.096   5.59000000e+02 
94.060   5.43000000e+02 
94.024   5.16000000e+02 
93.988   5.25000000e+02 
93.952   5.69000000e+02 
93.916   5.73000000e+02 
93.880   5.08000000e+02 
93.845   6.11000000e+02 
93.809   5.80000000e+02 
93.773   5.88000000e+02 
93.737   5.73000000e+02 
93.701   6.24000000e+02 
93.665   6.15000000e+02 
93.629   6.19000000e+02 
93.593   6.83000000e+02 
93.557   6.87000000e+02 
93.521   6.80000000e+02 
93.485   6.55000000e+02 
93.449   7.90000000e+02 
93.413   7.81000000e+02 
93.377   8.12000000e+02 
93.341   8.38000000e+02 
93.305   8.71000000e+02 
93.270   8.96000000e+02 
93.234   9.40000000e+02 
93.198   9.68000000e+02 
93.162   1.00400000e+03 
93.126   1.07600000e+03 
93.090   1.04000000e+03 
93.054   1.15500000e+03 
93.018   1.17400000e+03 
92.982   1.23900000e+03 
92.946   1.27500000e+03 
92.910   1.35100000e+03 
92.874   1.40000000e+03 
92.838   1.40600000e+03 
92.802   1.47600000e+03 
92.766   1.54000000e+03 
92.730   1.58400000e+03 
92.695   1.58800000e+03 
92.659   1.72500000e+03 
92.623   1.79300000e+03 
92.587   1.81400000e+03 
92.551   1.93800000e+03 
92.515   1.88700000e+03 
92.479   1.96800000e+03 
92.443   2.11500000e+03 
92.407   2.03000000e+03 
92.371   2.16800000e+03 
92.335   2.27100000e+03 
92.299   2.18700000e+03 
92.263   2.24300000e+03 
92.227   2.29900000e+03 
92.191   2.35000000e+03 
92.155   2.50000000e+03 
92.120   2.46900000e+03 
92.084   2.43600000e+03 
92.048   2.45800000e+03 
92.012   2.52000000e+03 
91.976   2.51300000e+03 
91.940   2.47300000e+03 
91.904   2.58100000e+03 
91.868   2.50400000e+03 
91.832   2.53200000e+03 
91.796   2.57600000e+03 
91.760   2.58100000e+03 
91.724   2.31400000e+03 
91.688   2.37000000e+03 
91.652   2.36500000e+03 
91.616   2.29100000e+03 
91.580   2.20000000e+03 
91.545   2.13100000e+03 
91.509   2.06800000e+03 
91.473   1.98700000e+03 
91.437   1.81700000e+03 
91.401   1.78900000e+03 
91.365   1.72500000e+03 
91.329   1.61400000e+03 
91.293   1.43800000e+03 
91.257   1.44600000e+03 
91.221   1.31000000e+03 
91.185   1.25900000e+03 
91.149   1.14400000e+03 
91.113   1.04800000e+03 
91.077   8.71000000e+02 
91.041   9.36000000e+02 
91.005   8.50000000e+02 
90.970   7.64000000e+02 
90.934   6.97000000e+02 
90.898   6.43000000e+02 
90.862   5.71000000e+02 
90.826   5.54000000e+02 
90.790   5.22000000e+02 
90.754   4.78000000e+02 
90.718   4.18000000e+02 
90.682   4.13000000e+02 
90.646   3.96000000e+02 
90.610   4.09000000e+02 
90.574   3.68000000e+02 
90.538   3.01000000e+02 
90.502   3.47000000e+02 
90.466   3.16000000e+02 
90.430   2.73000000e+02 
90.395   2.92000000e+02 
90.359   2.50000000e+02 
90.323   2.78000000e+02 
90.287   2.68000000e+02 
90.251   2.86000000e+02 
90.215   2.45000000e+02 
90.179   2.31000000e+02 
90.143   2.54000000e+02 
90.107   2.58000000e+02 
90.071   2.17000000e+02 
90.035   2.19000000e+02 
89.999   2.25000000e+02 
89.963   2.14000000e+02 
89.927   2.34000000e+02 
89.891   2.44000000e+02 
89.855   2.26000000e+02 
89.820   2.25000000e+02 
89.784   2.26000000e+02 
89.748   1.99000000e+02 
89.712   2.18000000e+02 
89.676   1.96000000e+02 
89.640   1.94000000e+02 
89.604   2.05000000e+02 
89.568   1.92000000e+02 
89.532   2.10000000e+02 
89.496   1.84000000e+02 
89.460   1.77000000e+02 
89.424   2.19000000e+02 
89.388   1.93000000e+02 
89.352   1.98000000e+02 
89.316   1.77000000e+02 
89.280   2.01000000e+02 
89.245   2.08000000e+02 
89.209   1.75000000e+02 
89.173   1.77000000e+02 
89.137   2.18000000e+02 
89.101   1.72000000e+02 
89.065   1.95000000e+02 
89.029   1.78000000e+02 
88.993   1.93000000e+02 
88.957   1.78000000e+02 
88.921   1.57000000e+02 
88.885   1.85000000e+02 
88.849   1.63000000e+02 
88.813   1.71000000e+02 
88.777   2.05000000e+02 
88.741   1.63000000e+02 
88.705   1.46000000e+02 
88.670   1.77000000e+02 
88.634   1.63000000e+02 
88.598   1.73000000e+02 
88.562   1.57000000e+02 
88.526   1.68000000e+02 
88.490   1.56000000e+02 
88.454   1.72000000e+02 
88.418   1.86000000e+02 
88.382   1.52000000e+02 
88.346   1.50000000e+02 
88.310   1.58000000e+02 
88.274   1.91000000e+02 
88.238   1.73000000e+02 
88.202   1.73000000e+02 
88.166   1.65000000e+02 
88.130   1.53000000e+02 
88.095   1.52000000e+02 
88.059   1.83000000e+02 
88.023   1.77000000e+02 

