EXPERIMENT FILE
Version = 2

[ Experiment Parameters ]
Experiment Description= <none> 
Number_of_Regions_in_Experiment= 1 

Original_File_name= C:\alexesca\data\10232012_Au _4f_68nuetral+39_Mono210.xps 
Instrument= HP ESCA West
Date= 10-23-2012
Time=  17:59:20

[ Layer Parameters ]
Layer_Type= XPS

[ Region 1 Parameters ]
Region_Description = Au 4f Dithered Scan                
BEcenter(eV) = 93.000000
BEwidth(eV) = 10.000000
BEstep(eV) = 0.035937
Dwell_Time(sec) = 1.000000
N_o_scans = 1  
N_o_Channels = 278  
Scan_mode = 0  (DITHERED)

[ L= 1 R= 1 ]
BEcenter= 93.000  
BEwidth= -9.955  
Excitation= 1486.600
Time_p_channel= 256.000 
Size= 278
97.977   6.31000000e+02 
97.941   6.54000000e+02 
97.905   7.02000000e+02 
97.870   7.64000000e+02 
97.834   7.27000000e+02 
97.798   7.72000000e+02 
97.762   7.33000000e+02 
97.726   7.33000000e+02 
97.690   7.94000000e+02 
97.654   7.93000000e+02 
97.618   8.02000000e+02 
97.582   8.43000000e+02 
97.546   7.96000000e+02 
97.510   8.25000000e+02 
97.474   8.79000000e+02 
97.438   8.66000000e+02 
97.402   8.90000000e+02 
97.366   8.94000000e+02 
97.330   8.94000000e+02 
97.295   1.02100000e+03 
97.259   1.01400000e+03 
97.223   1.00800000e+03 
97.187   1.04300000e+03 
97.151   1.06800000e+03 
97.115   1.11300000e+03 
97.079   1.16800000e+03 
97.043   1.24400000e+03 
97.007   1.22000000e+03 
96.971   1.27500000e+03 
96.935   1.36700000e+03 
96.899   1.36100000e+03 
96.863   1.49200000e+03 
96.827   1.49700000e+03 
96.791   1.57100000e+03 
96.755   1.56600000e+03 
96.720   1.60000000e+03 
96.684   1.72000000e+03 
96.648   1.70900000e+03 
96.612   1.82700000e+03 
96.576   1.86200000e+03 
96.540   1.93700000e+03 
96.504   1.94400000e+03 
96.468   1.98900000e+03 
96.432   2.01300000e+03 
96.396   2.15400000e+03 
96.360   2.10100000e+03 
96.324   2.17400000e+03 
96.288   2.17100000e+03 
96.252   2.18000000e+03 
96.216   2.35900000e+03 
96.180   2.29200000e+03 
96.145   2.37700000e+03 
96.109   2.35400000e+03 
96.073   2.46600000e+03 
96.037   2.44800000e+03 
96.001   2.49200000e+03 
95.965   2.50600000e+03 
95.929   2.46700000e+03 
95.893   2.56400000e+03 
95.857   2.54900000e+03 
95.821   2.53800000e+03 
95.785   2.56100000e+03 
95.749   2.59200000e+03 
95.713   2.61300000e+03 
95.677   2.61000000e+03 
95.641   2.56000000e+03 
95.605   2.61500000e+03 
95.570   2.68100000e+03 
95.534   2.58800000e+03 
95.498   2.60900000e+03 
95.462   2.56200000e+03 
95.426   2.59800000e+03 
95.390   2.55500000e+03 
95.354   2.57800000e+03 
95.318   2.60800000e+03 
95.282   2.48500000e+03 
95.246   2.53800000e+03 
95.210   2.50400000e+03 
95.174   2.48400000e+03 
95.138   2.41700000e+03 
95.102   2.41300000e+03 
95.066   2.40500000e+03 
95.030   2.34800000e+03 
94.995   2.19500000e+03 
94.959   2.19600000e+03 
94.923   2.16700000e+03 
94.887   2.22500000e+03 
94.851   2.16300000e+03 
94.815   2.05300000e+03 
94.779   2.06700000e+03 
94.743   1.99600000e+03 
94.707   1.86600000e+03 
94.671   1.82100000e+03 
94.635   1.72500000e+03 
94.599   1.58200000e+03 
94.563   1.60900000e+03 
94.527   1.61300000e+03 
94.491   1.47100000e+03 
94.455   1.37000000e+03 
94.420   1.30600000e+03 
94.384   1.20200000e+03 
94.348   1.25200000e+03 
94.312   1.11200000e+03 
94.276   1.05800000e+03 
94.240   9.99000000e+02 
94.204   1.02400000e+03 
94.168   9.84000000e+02 
94.132   8.81000000e+02 
94.096   9.43000000e+02 
94.060   8.82000000e+02 
94.024   8.90000000e+02 
93.988   9.00000000e+02 
93.952   8.78000000e+02 
93.916   8.56000000e+02 
93.880   8.84000000e+02 
93.845   8.22000000e+02 
93.809   8.85000000e+02 
93.773   9.45000000e+02 
93.737   8.91000000e+02 
93.701   9.75000000e+02 
93.665   1.03100000e+03 
93.629   1.09900000e+03 
93.593   1.09100000e+03 
93.557   1.08500000e+03 
93.521   1.11100000e+03 
93.485   1.16600000e+03 
93.449   1.19100000e+03 
93.413   1.29700000e+03 
93.377   1.32600000e+03 
93.341   1.33900000e+03 
93.305   1.47200000e+03 
93.270   1.45200000e+03 
93.234   1.51000000e+03 
93.198   1.64200000e+03 
93.162   1.64000000e+03 
93.126   1.71900000e+03 
93.090   1.79800000e+03 
93.054   1.77800000e+03 
93.018   1.84300000e+03 
92.982   1.99100000e+03 
92.946   2.05400000e+03 
92.910   2.13900000e+03 
92.874   2.17800000e+03 
92.838   2.25300000e+03 
92.802   2.34500000e+03 
92.766   2.34100000e+03 
92.730   2.37500000e+03 
92.695   2.44700000e+03 
92.659   2.64100000e+03 
92.623   2.67500000e+03 
92.587   2.62900000e+03 
92.551   2.67500000e+03 
92.515   2.67100000e+03 
92.479   2.84600000e+03 
92.443   2.82100000e+03 
92.407   2.86300000e+03 
92.371   2.86300000e+03 
92.335   2.80700000e+03 
92.299   2.98300000e+03 
92.263   3.01100000e+03 
92.227   3.02200000e+03 
92.191   3.01700000e+03 
92.155   2.99900000e+03 
92.120   2.97900000e+03 
92.084   2.93400000e+03 
92.048   3.05100000e+03 
92.012   2.99400000e+03 
91.976   2.94600000e+03 
91.940   3.04100000e+03 
91.904   3.10900000e+03 
91.868   3.05000000e+03 
91.832   2.93800000e+03 
91.796   2.96900000e+03 
91.760   2.99500000e+03 
91.724   3.07000000e+03 
91.688   2.94400000e+03 
91.652   2.93100000e+03 
91.616   2.90600000e+03 
91.580   2.86500000e+03 
91.545   2.83300000e+03 
91.509   2.79800000e+03 
91.473   2.74700000e+03 
91.437   2.71900000e+03 
91.401   2.78800000e+03 
91.365   2.62800000e+03 
91.329   2.63100000e+03 
91.293   2.48400000e+03 
91.257   2.47700000e+03 
91.221   2.37700000e+03 
91.185   2.23300000e+03 
91.149   2.30900000e+03 
91.113   2.14100000e+03 
91.077   2.12500000e+03 
91.041   2.01300000e+03 
91.005   1.89300000e+03 
90.970   1.81900000e+03 
90.934   1.78300000e+03 
90.898   1.62900000e+03 
90.862   1.52200000e+03 
90.826   1.41400000e+03 
90.790   1.25100000e+03 
90.754   1.26600000e+03 
90.718   1.10700000e+03 
90.682   1.00200000e+03 
90.646   9.30000000e+02 
90.610   8.71000000e+02 
90.574   7.90000000e+02 
90.538   7.73000000e+02 
90.502   6.79000000e+02 
90.466   6.03000000e+02 
90.430   5.83000000e+02 
90.395   4.72000000e+02 
90.359   5.24000000e+02 
90.323   4.76000000e+02 
90.287   4.35000000e+02 
90.251   4.15000000e+02 
90.215   4.21000000e+02 
90.179   3.93000000e+02 
90.143   3.86000000e+02 
90.107   3.80000000e+02 
90.071   3.49000000e+02 
90.035   3.61000000e+02 
89.999   3.99000000e+02 
89.963   3.82000000e+02 
89.927   3.23000000e+02 
89.891   2.96000000e+02 
89.855   3.40000000e+02 
89.820   3.03000000e+02 
89.784   3.10000000e+02 
89.748   2.99000000e+02 
89.712   2.94000000e+02 
89.676   2.74000000e+02 
89.640   2.97000000e+02 
89.604   2.98000000e+02 
89.568   2.86000000e+02 
89.532   2.54000000e+02 
89.496   2.66000000e+02 
89.460   2.71000000e+02 
89.424   3.03000000e+02 
89.388   2.38000000e+02 
89.352   2.71000000e+02 
89.316   2.54000000e+02 
89.280   2.74000000e+02 
89.245   2.69000000e+02 
89.209   2.64000000e+02 
89.173   2.57000000e+02 
89.137   2.47000000e+02 
89.101   2.68000000e+02 
89.065   2.64000000e+02 
89.029   2.71000000e+02 
88.993   3.06000000e+02 
88.957   2.69000000e+02 
88.921   2.59000000e+02 
88.885   2.69000000e+02 
88.849   2.54000000e+02 
88.813   2.30000000e+02 
88.777   2.64000000e+02 
88.741   2.36000000e+02 
88.705   2.65000000e+02 
88.670   2.60000000e+02 
88.634   2.63000000e+02 
88.598   2.53000000e+02 
88.562   2.17000000e+02 
88.526   2.32000000e+02 
88.490   2.32000000e+02 
88.454   2.49000000e+02 
88.418   2.34000000e+02 
88.382   2.23000000e+02 
88.346   2.25000000e+02 
88.310   2.32000000e+02 
88.274   2.39000000e+02 
88.238   2.14000000e+02 
88.202   2.34000000e+02 
88.166   2.05000000e+02 
88.130   2.32000000e+02 
88.095   2.23000000e+02 
88.059   2.38000000e+02 
88.023   2.35000000e+02 

