EXPERIMENT FILE
Version = 2

[ Experiment Parameters ]
Experiment Description= <none> 
Number_of_Regions_in_Experiment= 1 

Original_File_name= C:\alexesca\data\10232012_Au _4f_61nuetral+9_Mono230.xps 
Instrument= HP ESCA West
Date= 10-23-2012
Time=  14:40:10

[ Layer Parameters ]
Layer_Type= XPS

[ Region 1 Parameters ]
Region_Description = Au 4f Dithered Scan                
BEcenter(eV) = 93.000000
BEwidth(eV) = 10.000000
BEstep(eV) = 0.035937
Dwell_Time(sec) = 1.000000
N_o_scans = 1  
N_o_Channels = 278  
Scan_mode = 0  (DITHERED)

[ L= 1 R= 1 ]
BEcenter= 93.000  
BEwidth= -9.955  
Excitation= 1486.600
Time_p_channel= 256.000 
Size= 278
97.977   4.31000000e+02 
97.941   4.36000000e+02 
97.905   4.26000000e+02 
97.870   4.49000000e+02 
97.834   4.11000000e+02 
97.798   4.36000000e+02 
97.762   4.63000000e+02 
97.726   4.23000000e+02 
97.690   4.51000000e+02 
97.654   4.59000000e+02 
97.618   4.77000000e+02 
97.582   4.78000000e+02 
97.546   4.68000000e+02 
97.510   5.17000000e+02 
97.474   5.59000000e+02 
97.438   5.36000000e+02 
97.402   5.42000000e+02 
97.366   5.33000000e+02 
97.330   5.60000000e+02 
97.295   5.91000000e+02 
97.259   5.76000000e+02 
97.223   6.36000000e+02 
97.187   6.53000000e+02 
97.151   6.64000000e+02 
97.115   7.16000000e+02 
97.079   7.38000000e+02 
97.043   7.70000000e+02 
97.007   7.70000000e+02 
96.971   7.74000000e+02 
96.935   7.90000000e+02 
96.899   8.40000000e+02 
96.863   8.68000000e+02 
96.827   9.20000000e+02 
96.791   9.44000000e+02 
96.755   9.99000000e+02 
96.720   9.48000000e+02 
96.684   9.86000000e+02 
96.648   9.73000000e+02 
96.612   1.01800000e+03 
96.576   1.06100000e+03 
96.540   1.13700000e+03 
96.504   1.16900000e+03 
96.468   1.25200000e+03 
96.432   1.24000000e+03 
96.396   1.34700000e+03 
96.360   1.27500000e+03 
96.324   1.39200000e+03 
96.288   1.40700000e+03 
96.252   1.51000000e+03 
96.216   1.49900000e+03 
96.180   1.50200000e+03 
96.145   1.51900000e+03 
96.109   1.55100000e+03 
96.073   1.60600000e+03 
96.037   1.66500000e+03 
96.001   1.75100000e+03 
95.965   1.67900000e+03 
95.929   1.74100000e+03 
95.893   1.73600000e+03 
95.857   1.84700000e+03 
95.821   1.81700000e+03 
95.785   1.78900000e+03 
95.749   1.84600000e+03 
95.713   1.87900000e+03 
95.677   1.82400000e+03 
95.641   1.85200000e+03 
95.605   1.87900000e+03 
95.570   1.80800000e+03 
95.534   1.86700000e+03 
95.498   1.84900000e+03 
95.462   1.72700000e+03 
95.426   1.74300000e+03 
95.390   1.75600000e+03 
95.354   1.73900000e+03 
95.318   1.70000000e+03 
95.282   1.54800000e+03 
95.246   1.56200000e+03 
95.210   1.52800000e+03 
95.174   1.46000000e+03 
95.138   1.43600000e+03 
95.102   1.35600000e+03 
95.066   1.33200000e+03 
95.030   1.26300000e+03 
94.995   1.20300000e+03 
94.959   1.19700000e+03 
94.923   1.11100000e+03 
94.887   1.04000000e+03 
94.851   9.36000000e+02 
94.815   9.83000000e+02 
94.779   8.68000000e+02 
94.743   7.85000000e+02 
94.707   7.82000000e+02 
94.671   7.28000000e+02 
94.635   7.01000000e+02 
94.599   6.60000000e+02 
94.563   6.32000000e+02 
94.527   6.02000000e+02 
94.491   5.80000000e+02 
94.455   5.32000000e+02 
94.420   5.71000000e+02 
94.384   5.33000000e+02 
94.348   5.19000000e+02 
94.312   5.37000000e+02 
94.276   4.62000000e+02 
94.240   4.52000000e+02 
94.204   4.79000000e+02 
94.168   4.71000000e+02 
94.132   4.76000000e+02 
94.096   4.83000000e+02 
94.060   4.89000000e+02 
94.024   4.66000000e+02 
93.988   4.63000000e+02 
93.952   4.80000000e+02 
93.916   4.71000000e+02 
93.880   5.15000000e+02 
93.845   5.29000000e+02 
93.809   5.43000000e+02 
93.773   5.24000000e+02 
93.737   5.14000000e+02 
93.701   5.63000000e+02 
93.665   5.81000000e+02 
93.629   6.05000000e+02 
93.593   6.39000000e+02 
93.557   5.99000000e+02 
93.521   6.38000000e+02 
93.485   6.67000000e+02 
93.449   6.82000000e+02 
93.413   7.38000000e+02 
93.377   8.09000000e+02 
93.341   8.00000000e+02 
93.305   8.33000000e+02 
93.270   8.26000000e+02 
93.234   9.11000000e+02 
93.198   8.96000000e+02 
93.162   1.00000000e+03 
93.126   9.80000000e+02 
93.090   1.04200000e+03 
93.054   9.92000000e+02 
93.018   1.12700000e+03 
92.982   1.18700000e+03 
92.946   1.21700000e+03 
92.910   1.22600000e+03 
92.874   1.31700000e+03 
92.838   1.29900000e+03 
92.802   1.43200000e+03 
92.766   1.48200000e+03 
92.730   1.41800000e+03 
92.695   1.54500000e+03 
92.659   1.53500000e+03 
92.623   1.62200000e+03 
92.587   1.68300000e+03 
92.551   1.71700000e+03 
92.515   1.75600000e+03 
92.479   1.81200000e+03 
92.443   1.91000000e+03 
92.407   1.92200000e+03 
92.371   1.97700000e+03 
92.335   2.01400000e+03 
92.299   1.96500000e+03 
92.263   2.01100000e+03 
92.227   2.09200000e+03 
92.191   2.16300000e+03 
92.155   2.08400000e+03 
92.120   2.04500000e+03 
92.084   2.07800000e+03 
92.048   2.17500000e+03 
92.012   2.11700000e+03 
91.976   2.01700000e+03 
91.940   2.15900000e+03 
91.904   2.20700000e+03 
91.868   2.11800000e+03 
91.832   2.06000000e+03 
91.796   2.10100000e+03 
91.760   2.04800000e+03 
91.724   2.04400000e+03 
91.688   1.94000000e+03 
91.652   1.92200000e+03 
91.616   1.89600000e+03 
91.580   1.80300000e+03 
91.545   1.80600000e+03 
91.509   1.76300000e+03 
91.473   1.65900000e+03 
91.437   1.52900000e+03 
91.401   1.41600000e+03 
91.365   1.37400000e+03 
91.329   1.38000000e+03 
91.293   1.25400000e+03 
91.257   1.18000000e+03 
91.221   1.04400000e+03 
91.185   1.04400000e+03 
91.149   9.24000000e+02 
91.113   8.64000000e+02 
91.077   8.15000000e+02 
91.041   7.01000000e+02 
91.005   7.12000000e+02 
90.970   6.03000000e+02 
90.934   5.41000000e+02 
90.898   5.45000000e+02 
90.862   4.98000000e+02 
90.826   4.36000000e+02 
90.790   4.26000000e+02 
90.754   3.65000000e+02 
90.718   3.90000000e+02 
90.682   3.32000000e+02 
90.646   3.21000000e+02 
90.610   3.04000000e+02 
90.574   2.91000000e+02 
90.538   3.26000000e+02 
90.502   2.99000000e+02 
90.466   2.80000000e+02 
90.430   2.65000000e+02 
90.395   2.42000000e+02 
90.359   2.60000000e+02 
90.323   2.12000000e+02 
90.287   2.35000000e+02 
90.251   2.16000000e+02 
90.215   2.39000000e+02 
90.179   2.22000000e+02 
90.143   2.15000000e+02 
90.107   2.26000000e+02 
90.071   2.36000000e+02 
90.035   1.81000000e+02 
89.999   2.09000000e+02 
89.963   1.78000000e+02 
89.927   1.63000000e+02 
89.891   2.27000000e+02 
89.855   1.64000000e+02 
89.820   1.79000000e+02 
89.784   2.01000000e+02 
89.748   2.02000000e+02 
89.712   1.84000000e+02 
89.676   1.71000000e+02 
89.640   1.79000000e+02 
89.604   1.91000000e+02 
89.568   1.69000000e+02 
89.532   1.66000000e+02 
89.496   1.67000000e+02 
89.460   1.75000000e+02 
89.424   1.61000000e+02 
89.388   1.64000000e+02 
89.352   1.65000000e+02 
89.316   1.50000000e+02 
89.280   1.93000000e+02 
89.245   1.63000000e+02 
89.209   1.54000000e+02 
89.173   1.45000000e+02 
89.137   1.53000000e+02 
89.101   1.67000000e+02 
89.065   1.73000000e+02 
89.029   1.24000000e+02 
88.993   1.34000000e+02 
88.957   1.49000000e+02 
88.921   1.75000000e+02 
88.885   1.56000000e+02 
88.849   1.49000000e+02 
88.813   1.58000000e+02 
88.777   1.72000000e+02 
88.741   1.56000000e+02 
88.705   1.70000000e+02 
88.670   1.43000000e+02 
88.634   1.87000000e+02 
88.598   1.51000000e+02 
88.562   1.45000000e+02 
88.526   1.55000000e+02 
88.490   1.21000000e+02 
88.454   1.41000000e+02 
88.418   1.28000000e+02 
88.382   1.48000000e+02 
88.346   1.73000000e+02 
88.310   1.20000000e+02 
88.274   1.47000000e+02 
88.238   1.58000000e+02 
88.202   1.49000000e+02 
88.166   1.49000000e+02 
88.130   1.49000000e+02 
88.095   1.50000000e+02 
88.059   1.53000000e+02 
88.023   1.53000000e+02 

