EXPERIMENT FILE
Version = 2

[ Experiment Parameters ]
Experiment Description= <none> 
Number_of_Regions_in_Experiment= 1 

Original_File_name= C:\alexesca\data\10232012_Au _4f_68nuetral+14_Mono222.xps 
Instrument= HP ESCA West
Date= 10-23-2012
Time=  17:48:13

[ Layer Parameters ]
Layer_Type= XPS

[ Region 1 Parameters ]
Region_Description = Au 4f Dithered Scan                
BEcenter(eV) = 93.000000
BEwidth(eV) = 10.000000
BEstep(eV) = 0.035937
Dwell_Time(sec) = 1.000000
N_o_scans = 1  
N_o_Channels = 278  
Scan_mode = 0  (DITHERED)

[ L= 1 R= 1 ]
BEcenter= 93.000  
BEwidth= -9.955  
Excitation= 1486.600
Time_p_channel= 256.000 
Size= 278
97.977   4.74000000e+02 
97.941   4.88000000e+02 
97.905   4.84000000e+02 
97.870   4.81000000e+02 
97.834   4.98000000e+02 
97.798   4.98000000e+02 
97.762   5.26000000e+02 
97.726   5.57000000e+02 
97.690   5.32000000e+02 
97.654   4.87000000e+02 
97.618   5.22000000e+02 
97.582   5.05000000e+02 
97.546   5.40000000e+02 
97.510   5.18000000e+02 
97.474   5.09000000e+02 
97.438   5.63000000e+02 
97.402   5.65000000e+02 
97.366   5.41000000e+02 
97.330   5.75000000e+02 
97.295   5.75000000e+02 
97.259   6.06000000e+02 
97.223   5.93000000e+02 
97.187   6.30000000e+02 
97.151   5.74000000e+02 
97.115   6.42000000e+02 
97.079   6.27000000e+02 
97.043   6.72000000e+02 
97.007   6.64000000e+02 
96.971   6.55000000e+02 
96.935   7.50000000e+02 
96.899   7.23000000e+02 
96.863   7.24000000e+02 
96.827   7.95000000e+02 
96.791   8.01000000e+02 
96.755   8.53000000e+02 
96.720   8.63000000e+02 
96.684   8.69000000e+02 
96.648   8.72000000e+02 
96.612   1.00300000e+03 
96.576   9.98000000e+02 
96.540   9.50000000e+02 
96.504   1.00100000e+03 
96.468   1.00000000e+03 
96.432   1.10300000e+03 
96.396   1.09900000e+03 
96.360   1.13700000e+03 
96.324   1.21900000e+03 
96.288   1.27200000e+03 
96.252   1.29300000e+03 
96.216   1.28600000e+03 
96.180   1.31100000e+03 
96.145   1.37100000e+03 
96.109   1.39300000e+03 
96.073   1.49300000e+03 
96.037   1.49000000e+03 
96.001   1.56800000e+03 
95.965   1.52000000e+03 
95.929   1.64900000e+03 
95.893   1.68300000e+03 
95.857   1.79500000e+03 
95.821   1.84000000e+03 
95.785   1.79700000e+03 
95.749   1.89400000e+03 
95.713   1.96000000e+03 
95.677   1.94400000e+03 
95.641   2.08200000e+03 
95.605   1.98700000e+03 
95.570   2.05500000e+03 
95.534   2.15800000e+03 
95.498   2.21900000e+03 
95.462   2.09900000e+03 
95.426   2.13700000e+03 
95.390   2.17100000e+03 
95.354   2.17500000e+03 
95.318   2.32600000e+03 
95.282   2.33300000e+03 
95.246   2.35200000e+03 
95.210   2.30200000e+03 
95.174   2.27300000e+03 
95.138   2.29700000e+03 
95.102   2.28200000e+03 
95.066   2.19800000e+03 
95.030   2.06200000e+03 
94.995   2.03800000e+03 
94.959   2.04700000e+03 
94.923   2.02600000e+03 
94.887   1.95000000e+03 
94.851   1.87100000e+03 
94.815   1.82900000e+03 
94.779   1.72800000e+03 
94.743   1.61800000e+03 
94.707   1.55100000e+03 
94.671   1.44900000e+03 
94.635   1.35600000e+03 
94.599   1.33200000e+03 
94.563   1.23200000e+03 
94.527   1.06700000e+03 
94.491   1.02900000e+03 
94.455   9.39000000e+02 
94.420   9.11000000e+02 
94.384   8.23000000e+02 
94.348   7.43000000e+02 
94.312   8.05000000e+02 
94.276   7.29000000e+02 
94.240   6.67000000e+02 
94.204   6.22000000e+02 
94.168   5.71000000e+02 
94.132   6.01000000e+02 
94.096   6.29000000e+02 
94.060   6.01000000e+02 
94.024   5.75000000e+02 
93.988   5.76000000e+02 
93.952   5.67000000e+02 
93.916   5.58000000e+02 
93.880   5.83000000e+02 
93.845   5.77000000e+02 
93.809   5.68000000e+02 
93.773   5.74000000e+02 
93.737   5.53000000e+02 
93.701   5.88000000e+02 
93.665   5.71000000e+02 
93.629   5.90000000e+02 
93.593   5.94000000e+02 
93.557   5.97000000e+02 
93.521   6.33000000e+02 
93.485   6.44000000e+02 
93.449   6.62000000e+02 
93.413   6.13000000e+02 
93.377   6.86000000e+02 
93.341   6.98000000e+02 
93.305   7.14000000e+02 
93.270   7.58000000e+02 
93.234   7.01000000e+02 
93.198   7.94000000e+02 
93.162   8.31000000e+02 
93.126   8.30000000e+02 
93.090   8.72000000e+02 
93.054   8.63000000e+02 
93.018   9.77000000e+02 
92.982   9.57000000e+02 
92.946   1.01900000e+03 
92.910   1.08100000e+03 
92.874   1.07200000e+03 
92.838   1.10700000e+03 
92.802   1.08000000e+03 
92.766   1.19700000e+03 
92.730   1.22600000e+03 
92.695   1.27300000e+03 
92.659   1.26300000e+03 
92.623   1.37200000e+03 
92.587   1.43100000e+03 
92.551   1.46900000e+03 
92.515   1.44900000e+03 
92.479   1.57100000e+03 
92.443   1.59800000e+03 
92.407   1.71400000e+03 
92.371   1.73000000e+03 
92.335   1.81600000e+03 
92.299   1.81200000e+03 
92.263   1.95400000e+03 
92.227   2.02400000e+03 
92.191   1.95700000e+03 
92.155   2.03900000e+03 
92.120   2.11600000e+03 
92.084   2.17800000e+03 
92.048   2.24700000e+03 
92.012   2.28400000e+03 
91.976   2.34700000e+03 
91.940   2.41800000e+03 
91.904   2.52900000e+03 
91.868   2.53100000e+03 
91.832   2.54900000e+03 
91.796   2.50400000e+03 
91.760   2.60900000e+03 
91.724   2.62400000e+03 
91.688   2.70000000e+03 
91.652   2.72300000e+03 
91.616   2.66700000e+03 
91.580   2.73900000e+03 
91.545   2.75700000e+03 
91.509   2.72600000e+03 
91.473   2.71600000e+03 
91.437   2.75700000e+03 
91.401   2.68400000e+03 
91.365   2.61600000e+03 
91.329   2.43000000e+03 
91.293   2.55600000e+03 
91.257   2.39800000e+03 
91.221   2.26100000e+03 
91.185   2.19000000e+03 
91.149   2.05500000e+03 
91.113   1.86700000e+03 
91.077   1.87200000e+03 
91.041   1.66700000e+03 
91.005   1.67200000e+03 
90.970   1.40800000e+03 
90.934   1.33700000e+03 
90.898   1.25000000e+03 
90.862   1.07700000e+03 
90.826   9.85000000e+02 
90.790   9.47000000e+02 
90.754   8.69000000e+02 
90.718   7.46000000e+02 
90.682   6.91000000e+02 
90.646   6.06000000e+02 
90.610   5.46000000e+02 
90.574   5.31000000e+02 
90.538   4.81000000e+02 
90.502   4.57000000e+02 
90.466   4.11000000e+02 
90.430   4.15000000e+02 
90.395   3.72000000e+02 
90.359   3.40000000e+02 
90.323   3.61000000e+02 
90.287   3.38000000e+02 
90.251   3.24000000e+02 
90.215   3.05000000e+02 
90.179   3.03000000e+02 
90.143   3.07000000e+02 
90.107   2.91000000e+02 
90.071   2.63000000e+02 
90.035   2.77000000e+02 
89.999   2.82000000e+02 
89.963   2.50000000e+02 
89.927   2.46000000e+02 
89.891   2.48000000e+02 
89.855   2.75000000e+02 
89.820   2.34000000e+02 
89.784   2.74000000e+02 
89.748   2.58000000e+02 
89.712   2.15000000e+02 
89.676   2.18000000e+02 
89.640   2.48000000e+02 
89.604   2.59000000e+02 
89.568   2.23000000e+02 
89.532   2.07000000e+02 
89.496   2.15000000e+02 
89.460   2.33000000e+02 
89.424   2.00000000e+02 
89.388   2.25000000e+02 
89.352   2.12000000e+02 
89.316   1.94000000e+02 
89.280   1.97000000e+02 
89.245   2.01000000e+02 
89.209   2.21000000e+02 
89.173   2.03000000e+02 
89.137   1.81000000e+02 
89.101   1.77000000e+02 
89.065   1.55000000e+02 
89.029   2.27000000e+02 
88.993   1.76000000e+02 
88.957   1.80000000e+02 
88.921   1.90000000e+02 
88.885   1.84000000e+02 
88.849   1.99000000e+02 
88.813   1.69000000e+02 
88.777   1.81000000e+02 
88.741   1.71000000e+02 
88.705   1.80000000e+02 
88.670   1.81000000e+02 
88.634   1.89000000e+02 
88.598   1.84000000e+02 
88.562   1.68000000e+02 
88.526   2.00000000e+02 
88.490   1.80000000e+02 
88.454   1.69000000e+02 
88.418   1.81000000e+02 
88.382   1.66000000e+02 
88.346   1.78000000e+02 
88.310   1.74000000e+02 
88.274   1.94000000e+02 
88.238   1.78000000e+02 
88.202   1.55000000e+02 
88.166   1.71000000e+02 
88.130   1.87000000e+02 
88.095   1.56000000e+02 
88.059   1.89000000e+02 
88.023   1.62000000e+02 

