EXPERIMENT FILE
Version = 2

[ Experiment Parameters ]
Experiment Description= <none> 
Number_of_Regions_in_Experiment= 1 

Original_File_name= C:\alexesca\data\10232012_Au _4f_68nuetral+12_Mono218.xps 
Instrument= HP ESCA West
Date= 10-23-2012
Time=  16:46:52

[ Layer Parameters ]
Layer_Type= XPS

[ Region 1 Parameters ]
Region_Description = Au 4f Dithered Scan                
BEcenter(eV) = 93.000000
BEwidth(eV) = 10.000000
BEstep(eV) = 0.035937
Dwell_Time(sec) = 1.000000
N_o_scans = 1  
N_o_Channels = 278  
Scan_mode = 0  (DITHERED)

[ L= 1 R= 1 ]
BEcenter= 93.000  
BEwidth= -9.955  
Excitation= 1486.600
Time_p_channel= 256.000 
Size= 278
97.977   4.80000000e+02 
97.941   4.96000000e+02 
97.905   4.95000000e+02 
97.870   5.32000000e+02 
97.834   4.91000000e+02 
97.798   4.86000000e+02 
97.762   4.80000000e+02 
97.726   5.16000000e+02 
97.690   5.03000000e+02 
97.654   5.01000000e+02 
97.618   5.12000000e+02 
97.582   5.24000000e+02 
97.546   5.19000000e+02 
97.510   5.38000000e+02 
97.474   5.33000000e+02 
97.438   5.33000000e+02 
97.402   5.94000000e+02 
97.366   5.95000000e+02 
97.330   6.38000000e+02 
97.295   5.88000000e+02 
97.259   5.88000000e+02 
97.223   5.81000000e+02 
97.187   6.39000000e+02 
97.151   6.53000000e+02 
97.115   6.66000000e+02 
97.079   7.12000000e+02 
97.043   7.02000000e+02 
97.007   7.83000000e+02 
96.971   7.59000000e+02 
96.935   7.92000000e+02 
96.899   7.98000000e+02 
96.863   8.51000000e+02 
96.827   8.00000000e+02 
96.791   9.76000000e+02 
96.755   9.28000000e+02 
96.720   9.45000000e+02 
96.684   1.01600000e+03 
96.648   1.01100000e+03 
96.612   1.01500000e+03 
96.576   1.09100000e+03 
96.540   1.07200000e+03 
96.504   1.08400000e+03 
96.468   1.16100000e+03 
96.432   1.27100000e+03 
96.396   1.22300000e+03 
96.360   1.32200000e+03 
96.324   1.29600000e+03 
96.288   1.31600000e+03 
96.252   1.36200000e+03 
96.216   1.44700000e+03 
96.180   1.44700000e+03 
96.145   1.53500000e+03 
96.109   1.62500000e+03 
96.073   1.65800000e+03 
96.037   1.74100000e+03 
96.001   1.76000000e+03 
95.965   1.74400000e+03 
95.929   1.76900000e+03 
95.893   1.83000000e+03 
95.857   1.86100000e+03 
95.821   1.93200000e+03 
95.785   1.97000000e+03 
95.749   1.90000000e+03 
95.713   2.05600000e+03 
95.677   2.12200000e+03 
95.641   2.06300000e+03 
95.605   2.20900000e+03 
95.570   2.16600000e+03 
95.534   2.15600000e+03 
95.498   2.18400000e+03 
95.462   2.14500000e+03 
95.426   2.22900000e+03 
95.390   2.10700000e+03 
95.354   2.15400000e+03 
95.318   2.15300000e+03 
95.282   2.23800000e+03 
95.246   2.10300000e+03 
95.210   2.09500000e+03 
95.174   2.01400000e+03 
95.138   1.96200000e+03 
95.102   1.99100000e+03 
95.066   1.92400000e+03 
95.030   1.86500000e+03 
94.995   1.74400000e+03 
94.959   1.75900000e+03 
94.923   1.66900000e+03 
94.887   1.58800000e+03 
94.851   1.44300000e+03 
94.815   1.47300000e+03 
94.779   1.35200000e+03 
94.743   1.21300000e+03 
94.707   1.20900000e+03 
94.671   1.15200000e+03 
94.635   1.06200000e+03 
94.599   1.03400000e+03 
94.563   9.25000000e+02 
94.527   8.74000000e+02 
94.491   8.32000000e+02 
94.455   7.30000000e+02 
94.420   7.32000000e+02 
94.384   6.84000000e+02 
94.348   7.22000000e+02 
94.312   6.64000000e+02 
94.276   6.49000000e+02 
94.240   6.18000000e+02 
94.204   6.01000000e+02 
94.168   5.59000000e+02 
94.132   6.01000000e+02 
94.096   5.66000000e+02 
94.060   5.88000000e+02 
94.024   5.54000000e+02 
93.988   5.90000000e+02 
93.952   5.65000000e+02 
93.916   5.66000000e+02 
93.880   6.26000000e+02 
93.845   5.46000000e+02 
93.809   5.61000000e+02 
93.773   5.74000000e+02 
93.737   5.34000000e+02 
93.701   5.86000000e+02 
93.665   5.58000000e+02 
93.629   6.52000000e+02 
93.593   6.43000000e+02 
93.557   6.28000000e+02 
93.521   6.88000000e+02 
93.485   6.95000000e+02 
93.449   7.02000000e+02 
93.413   7.42000000e+02 
93.377   7.24000000e+02 
93.341   7.76000000e+02 
93.305   8.40000000e+02 
93.270   8.62000000e+02 
93.234   8.54000000e+02 
93.198   8.78000000e+02 
93.162   9.10000000e+02 
93.126   9.43000000e+02 
93.090   9.95000000e+02 
93.054   1.05300000e+03 
93.018   1.08100000e+03 
92.982   1.06100000e+03 
92.946   1.12000000e+03 
92.910   1.17000000e+03 
92.874   1.17000000e+03 
92.838   1.26300000e+03 
92.802   1.35900000e+03 
92.766   1.32500000e+03 
92.730   1.47500000e+03 
92.695   1.49000000e+03 
92.659   1.49900000e+03 
92.623   1.54200000e+03 
92.587   1.67500000e+03 
92.551   1.68200000e+03 
92.515   1.71700000e+03 
92.479   1.83500000e+03 
92.443   1.86700000e+03 
92.407   1.82800000e+03 
92.371   1.86100000e+03 
92.335   2.01900000e+03 
92.299   2.10600000e+03 
92.263   2.08700000e+03 
92.227   2.13900000e+03 
92.191   2.28100000e+03 
92.155   2.18500000e+03 
92.120   2.36300000e+03 
92.084   2.38100000e+03 
92.048   2.47900000e+03 
92.012   2.49200000e+03 
91.976   2.53300000e+03 
91.940   2.48600000e+03 
91.904   2.58200000e+03 
91.868   2.60200000e+03 
91.832   2.59000000e+03 
91.796   2.67700000e+03 
91.760   2.68700000e+03 
91.724   2.59300000e+03 
91.688   2.57700000e+03 
91.652   2.56500000e+03 
91.616   2.54200000e+03 
91.580   2.43400000e+03 
91.545   2.52400000e+03 
91.509   2.42100000e+03 
91.473   2.32600000e+03 
91.437   2.32900000e+03 
91.401   2.27700000e+03 
91.365   2.14200000e+03 
91.329   2.09100000e+03 
91.293   2.05900000e+03 
91.257   1.86700000e+03 
91.221   1.81000000e+03 
91.185   1.72600000e+03 
91.149   1.55400000e+03 
91.113   1.43800000e+03 
91.077   1.35800000e+03 
91.041   1.28400000e+03 
91.005   1.17300000e+03 
90.970   1.04700000e+03 
90.934   9.66000000e+02 
90.898   8.97000000e+02 
90.862   8.22000000e+02 
90.826   7.53000000e+02 
90.790   6.90000000e+02 
90.754   6.21000000e+02 
90.718   5.77000000e+02 
90.682   5.21000000e+02 
90.646   4.94000000e+02 
90.610   4.74000000e+02 
90.574   3.93000000e+02 
90.538   4.23000000e+02 
90.502   3.44000000e+02 
90.466   3.62000000e+02 
90.430   3.58000000e+02 
90.395   3.25000000e+02 
90.359   3.09000000e+02 
90.323   3.35000000e+02 
90.287   3.07000000e+02 
90.251   3.20000000e+02 
90.215   2.97000000e+02 
90.179   2.76000000e+02 
90.143   2.45000000e+02 
90.107   2.79000000e+02 
90.071   2.49000000e+02 
90.035   2.41000000e+02 
89.999   2.23000000e+02 
89.963   2.67000000e+02 
89.927   2.40000000e+02 
89.891   2.21000000e+02 
89.855   2.34000000e+02 
89.820   2.14000000e+02 
89.784   2.31000000e+02 
89.748   2.32000000e+02 
89.712   2.20000000e+02 
89.676   2.14000000e+02 
89.640   2.36000000e+02 
89.604   2.14000000e+02 
89.568   2.12000000e+02 
89.532   2.03000000e+02 
89.496   2.20000000e+02 
89.460   1.82000000e+02 
89.424   1.92000000e+02 
89.388   1.78000000e+02 
89.352   2.11000000e+02 
89.316   2.01000000e+02 
89.280   2.20000000e+02 
89.245   1.99000000e+02 
89.209   1.84000000e+02 
89.173   1.77000000e+02 
89.137   2.00000000e+02 
89.101   1.92000000e+02 
89.065   1.61000000e+02 
89.029   1.71000000e+02 
88.993   1.90000000e+02 
88.957   1.72000000e+02 
88.921   2.03000000e+02 
88.885   1.95000000e+02 
88.849   1.76000000e+02 
88.813   1.77000000e+02 
88.777   1.94000000e+02 
88.741   1.78000000e+02 
88.705   1.88000000e+02 
88.670   2.00000000e+02 
88.634   1.54000000e+02 
88.598   1.80000000e+02 
88.562   1.72000000e+02 
88.526   1.95000000e+02 
88.490   1.83000000e+02 
88.454   1.82000000e+02 
88.418   1.58000000e+02 
88.382   1.57000000e+02 
88.346   1.69000000e+02 
88.310   1.75000000e+02 
88.274   1.60000000e+02 
88.238   1.71000000e+02 
88.202   1.62000000e+02 
88.166   1.59000000e+02 
88.130   1.81000000e+02 
88.095   1.68000000e+02 
88.059   1.86000000e+02 
88.023   1.70000000e+02 

