EXPERIMENT FILE
Version = 2

[ Experiment Parameters ]
Experiment Description= <none> 
Number_of_Regions_in_Experiment= 1 

Original_File_name= C:\alexesca\data\10242012_Au _4f_56nuetral+14_Mono220.xps 
Instrument= HP ESCA West
Date= 10-24-2012
Time=  16:05:05

[ Layer Parameters ]
Layer_Type= XPS

[ Region 1 Parameters ]
Region_Description = Au 4f Dithered Scan                
BEcenter(eV) = 93.000000
BEwidth(eV) = 10.000000
BEstep(eV) = 0.035937
Dwell_Time(sec) = 1.000000
N_o_scans = 1  
N_o_Channels = 278  
Scan_mode = 0  (DITHERED)

[ L= 1 R= 1 ]
BEcenter= 93.000  
BEwidth= -9.955  
Excitation= 1486.600
Time_p_channel= 256.000 
Size= 278
97.977   5.28000000e+02 
97.941   5.13000000e+02 
97.905   5.17000000e+02 
97.870   5.12000000e+02 
97.834   5.41000000e+02 
97.798   5.15000000e+02 
97.762   5.08000000e+02 
97.726   4.80000000e+02 
97.690   5.89000000e+02 
97.654   5.77000000e+02 
97.618   5.51000000e+02 
97.582   5.32000000e+02 
97.546   5.87000000e+02 
97.510   6.08000000e+02 
97.474   5.74000000e+02 
97.438   6.06000000e+02 
97.402   6.48000000e+02 
97.366   6.46000000e+02 
97.330   6.15000000e+02 
97.295   7.51000000e+02 
97.259   6.64000000e+02 
97.223   7.09000000e+02 
97.187   6.84000000e+02 
97.151   7.81000000e+02 
97.115   8.28000000e+02 
97.079   7.79000000e+02 
97.043   8.19000000e+02 
97.007   8.02000000e+02 
96.971   8.51000000e+02 
96.935   8.94000000e+02 
96.899   9.33000000e+02 
96.863   9.52000000e+02 
96.827   9.44000000e+02 
96.791   1.03300000e+03 
96.755   1.05100000e+03 
96.720   1.02800000e+03 
96.684   1.14000000e+03 
96.648   1.23200000e+03 
96.612   1.28300000e+03 
96.576   1.28300000e+03 
96.540   1.26200000e+03 
96.504   1.36400000e+03 
96.468   1.36600000e+03 
96.432   1.41700000e+03 
96.396   1.49100000e+03 
96.360   1.60100000e+03 
96.324   1.60500000e+03 
96.288   1.58300000e+03 
96.252   1.76400000e+03 
96.216   1.73100000e+03 
96.180   1.76700000e+03 
96.145   1.82700000e+03 
96.109   1.90200000e+03 
96.073   1.87500000e+03 
96.037   2.01300000e+03 
96.001   2.02700000e+03 
95.965   2.04000000e+03 
95.929   2.09100000e+03 
95.893   2.11400000e+03 
95.857   2.19600000e+03 
95.821   2.22900000e+03 
95.785   2.20200000e+03 
95.749   2.27200000e+03 
95.713   2.23400000e+03 
95.677   2.28300000e+03 
95.641   2.28500000e+03 
95.605   2.28900000e+03 
95.570   2.30900000e+03 
95.534   2.34500000e+03 
95.498   2.30400000e+03 
95.462   2.38700000e+03 
95.426   2.21000000e+03 
95.390   2.21900000e+03 
95.354   2.15800000e+03 
95.318   2.06300000e+03 
95.282   2.11100000e+03 
95.246   2.04600000e+03 
95.210   1.91100000e+03 
95.174   1.91100000e+03 
95.138   1.80000000e+03 
95.102   1.75400000e+03 
95.066   1.66200000e+03 
95.030   1.54900000e+03 
94.995   1.50600000e+03 
94.959   1.41400000e+03 
94.923   1.37900000e+03 
94.887   1.22400000e+03 
94.851   1.15700000e+03 
94.815   1.19500000e+03 
94.779   9.96000000e+02 
94.743   9.78000000e+02 
94.707   9.17000000e+02 
94.671   8.41000000e+02 
94.635   8.27000000e+02 
94.599   8.02000000e+02 
94.563   7.57000000e+02 
94.527   7.03000000e+02 
94.491   6.74000000e+02 
94.455   6.44000000e+02 
94.420   6.46000000e+02 
94.384   6.21000000e+02 
94.348   6.31000000e+02 
94.312   5.87000000e+02 
94.276   5.65000000e+02 
94.240   5.94000000e+02 
94.204   5.59000000e+02 
94.168   5.52000000e+02 
94.132   5.30000000e+02 
94.096   5.31000000e+02 
94.060   5.87000000e+02 
94.024   5.88000000e+02 
93.988   5.75000000e+02 
93.952   5.90000000e+02 
93.916   5.58000000e+02 
93.880   5.87000000e+02 
93.845   6.23000000e+02 
93.809   6.26000000e+02 
93.773   5.98000000e+02 
93.737   6.00000000e+02 
93.701   6.36000000e+02 
93.665   6.77000000e+02 
93.629   6.74000000e+02 
93.593   7.14000000e+02 
93.557   6.66000000e+02 
93.521   7.32000000e+02 
93.485   7.78000000e+02 
93.449   7.74000000e+02 
93.413   8.30000000e+02 
93.377   8.32000000e+02 
93.341   8.50000000e+02 
93.305   8.95000000e+02 
93.270   9.52000000e+02 
93.234   1.01100000e+03 
93.198   1.06200000e+03 
93.162   1.10200000e+03 
93.126   1.10000000e+03 
93.090   1.19300000e+03 
93.054   1.20800000e+03 
93.018   1.23300000e+03 
92.982   1.34900000e+03 
92.946   1.35800000e+03 
92.910   1.39200000e+03 
92.874   1.49200000e+03 
92.838   1.52700000e+03 
92.802   1.60700000e+03 
92.766   1.56400000e+03 
92.730   1.67100000e+03 
92.695   1.73700000e+03 
92.659   1.88700000e+03 
92.623   1.84600000e+03 
92.587   1.94300000e+03 
92.551   1.95100000e+03 
92.515   2.09100000e+03 
92.479   2.13900000e+03 
92.443   2.21500000e+03 
92.407   2.32000000e+03 
92.371   2.34900000e+03 
92.335   2.28100000e+03 
92.299   2.39300000e+03 
92.263   2.49100000e+03 
92.227   2.56400000e+03 
92.191   2.54200000e+03 
92.155   2.61500000e+03 
92.120   2.66300000e+03 
92.084   2.62200000e+03 
92.048   2.64300000e+03 
92.012   2.71900000e+03 
91.976   2.66800000e+03 
91.940   2.82000000e+03 
91.904   2.77900000e+03 
91.868   2.76600000e+03 
91.832   2.82600000e+03 
91.796   2.82000000e+03 
91.760   2.65500000e+03 
91.724   2.65800000e+03 
91.688   2.72100000e+03 
91.652   2.51500000e+03 
91.616   2.40400000e+03 
91.580   2.41500000e+03 
91.545   2.31000000e+03 
91.509   2.17700000e+03 
91.473   2.01600000e+03 
91.437   1.98900000e+03 
91.401   1.87900000e+03 
91.365   1.81400000e+03 
91.329   1.71400000e+03 
91.293   1.57400000e+03 
91.257   1.47800000e+03 
91.221   1.36600000e+03 
91.185   1.29600000e+03 
91.149   1.17900000e+03 
91.113   1.01500000e+03 
91.077   9.93000000e+02 
91.041   9.13000000e+02 
91.005   7.90000000e+02 
90.970   7.58000000e+02 
90.934   6.36000000e+02 
90.898   6.52000000e+02 
90.862   6.02000000e+02 
90.826   5.23000000e+02 
90.790   5.45000000e+02 
90.754   5.07000000e+02 
90.718   4.66000000e+02 
90.682   4.27000000e+02 
90.646   4.03000000e+02 
90.610   3.85000000e+02 
90.574   3.50000000e+02 
90.538   3.50000000e+02 
90.502   3.46000000e+02 
90.466   3.09000000e+02 
90.430   3.17000000e+02 
90.395   2.99000000e+02 
90.359   2.78000000e+02 
90.323   3.12000000e+02 
90.287   2.97000000e+02 
90.251   2.78000000e+02 
90.215   2.58000000e+02 
90.179   2.56000000e+02 
90.143   2.29000000e+02 
90.107   2.67000000e+02 
90.071   2.67000000e+02 
90.035   2.34000000e+02 
89.999   2.36000000e+02 
89.963   2.05000000e+02 
89.927   2.39000000e+02 
89.891   2.21000000e+02 
89.855   2.10000000e+02 
89.820   2.29000000e+02 
89.784   2.28000000e+02 
89.748   2.28000000e+02 
89.712   2.38000000e+02 
89.676   2.22000000e+02 
89.640   2.07000000e+02 
89.604   2.19000000e+02 
89.568   2.37000000e+02 
89.532   2.18000000e+02 
89.496   1.86000000e+02 
89.460   1.86000000e+02 
89.424   2.12000000e+02 
89.388   2.08000000e+02 
89.352   1.74000000e+02 
89.316   2.11000000e+02 
89.280   2.00000000e+02 
89.245   2.22000000e+02 
89.209   1.74000000e+02 
89.173   1.73000000e+02 
89.137   2.04000000e+02 
89.101   1.74000000e+02 
89.065   1.89000000e+02 
89.029   1.92000000e+02 
88.993   2.04000000e+02 
88.957   1.94000000e+02 
88.921   1.85000000e+02 
88.885   1.54000000e+02 
88.849   2.01000000e+02 
88.813   1.61000000e+02 
88.777   1.88000000e+02 
88.741   1.73000000e+02 
88.705   1.77000000e+02 
88.670   1.98000000e+02 
88.634   1.66000000e+02 
88.598   1.82000000e+02 
88.562   1.77000000e+02 
88.526   1.82000000e+02 
88.490   1.77000000e+02 
88.454   1.76000000e+02 
88.418   1.92000000e+02 
88.382   1.76000000e+02 
88.346   1.62000000e+02 
88.310   1.89000000e+02 
88.274   1.87000000e+02 
88.238   1.79000000e+02 
88.202   1.60000000e+02 
88.166   1.80000000e+02 
88.130   1.64000000e+02 
88.095   1.74000000e+02 
88.059   1.60000000e+02 
88.023   1.87000000e+02 

