EXPERIMENT FILE
Version = 2

[ Experiment Parameters ]
Experiment Description= <none> 
Number_of_Regions_in_Experiment= 1 

Original_File_name= C:\alexesca\data\10242012_Au _4f_56nuetral+39_Mono220.xps 
Instrument= HP ESCA West
Date= 10-24-2012
Time=  16:20:05

[ Layer Parameters ]
Layer_Type= XPS

[ Region 1 Parameters ]
Region_Description = Au 4f Dithered Scan                
BEcenter(eV) = 93.000000
BEwidth(eV) = 10.000000
BEstep(eV) = 0.035937
Dwell_Time(sec) = 1.000000
N_o_scans = 1  
N_o_Channels = 278  
Scan_mode = 0  (DITHERED)

[ L= 1 R= 1 ]
BEcenter= 93.000  
BEwidth= -9.955  
Excitation= 1486.600
Time_p_channel= 256.000 
Size= 278
97.977   6.86000000e+02 
97.941   6.46000000e+02 
97.905   6.95000000e+02 
97.870   6.42000000e+02 
97.834   6.48000000e+02 
97.798   6.89000000e+02 
97.762   6.67000000e+02 
97.726   6.87000000e+02 
97.690   6.76000000e+02 
97.654   7.45000000e+02 
97.618   7.65000000e+02 
97.582   8.33000000e+02 
97.546   7.52000000e+02 
97.510   8.60000000e+02 
97.474   8.11000000e+02 
97.438   8.79000000e+02 
97.402   9.29000000e+02 
97.366   9.74000000e+02 
97.330   9.91000000e+02 
97.295   1.06000000e+03 
97.259   1.03800000e+03 
97.223   1.10400000e+03 
97.187   1.14200000e+03 
97.151   1.22100000e+03 
97.115   1.19600000e+03 
97.079   1.29800000e+03 
97.043   1.34000000e+03 
97.007   1.35500000e+03 
96.971   1.45600000e+03 
96.935   1.48800000e+03 
96.899   1.61100000e+03 
96.863   1.60600000e+03 
96.827   1.64200000e+03 
96.791   1.74000000e+03 
96.755   1.88000000e+03 
96.720   1.91500000e+03 
96.684   1.95700000e+03 
96.648   1.94300000e+03 
96.612   2.01200000e+03 
96.576   2.21200000e+03 
96.540   2.21500000e+03 
96.504   2.22600000e+03 
96.468   2.22700000e+03 
96.432   2.28200000e+03 
96.396   2.29800000e+03 
96.360   2.47000000e+03 
96.324   2.40000000e+03 
96.288   2.33500000e+03 
96.252   2.47900000e+03 
96.216   2.39800000e+03 
96.180   2.47500000e+03 
96.145   2.38700000e+03 
96.109   2.49400000e+03 
96.073   2.51700000e+03 
96.037   2.48100000e+03 
96.001   2.45700000e+03 
95.965   2.52000000e+03 
95.929   2.47700000e+03 
95.893   2.43200000e+03 
95.857   2.47000000e+03 
95.821   2.47300000e+03 
95.785   2.40000000e+03 
95.749   2.36300000e+03 
95.713   2.33400000e+03 
95.677   2.40200000e+03 
95.641   2.31200000e+03 
95.605   2.31400000e+03 
95.570   2.30400000e+03 
95.534   2.20700000e+03 
95.498   2.12500000e+03 
95.462   2.12900000e+03 
95.426   2.01800000e+03 
95.390   2.10600000e+03 
95.354   1.94200000e+03 
95.318   2.04100000e+03 
95.282   1.94900000e+03 
95.246   1.85400000e+03 
95.210   1.86400000e+03 
95.174   1.89700000e+03 
95.138   1.73300000e+03 
95.102   1.75000000e+03 
95.066   1.68900000e+03 
95.030   1.61000000e+03 
94.995   1.55200000e+03 
94.959   1.53000000e+03 
94.923   1.55700000e+03 
94.887   1.42700000e+03 
94.851   1.47900000e+03 
94.815   1.38700000e+03 
94.779   1.27000000e+03 
94.743   1.27200000e+03 
94.707   1.16700000e+03 
94.671   1.15100000e+03 
94.635   1.14300000e+03 
94.599   1.02100000e+03 
94.563   1.02400000e+03 
94.527   9.48000000e+02 
94.491   8.74000000e+02 
94.455   9.15000000e+02 
94.420   8.56000000e+02 
94.384   8.71000000e+02 
94.348   8.14000000e+02 
94.312   7.68000000e+02 
94.276   7.72000000e+02 
94.240   7.71000000e+02 
94.204   7.18000000e+02 
94.168   7.64000000e+02 
94.132   8.07000000e+02 
94.096   7.80000000e+02 
94.060   7.78000000e+02 
94.024   7.64000000e+02 
93.988   7.94000000e+02 
93.952   8.39000000e+02 
93.916   8.61000000e+02 
93.880   8.21000000e+02 
93.845   8.89000000e+02 
93.809   9.39000000e+02 
93.773   9.34000000e+02 
93.737   9.71000000e+02 
93.701   9.91000000e+02 
93.665   1.01700000e+03 
93.629   1.11400000e+03 
93.593   1.09600000e+03 
93.557   1.12900000e+03 
93.521   1.28400000e+03 
93.485   1.29300000e+03 
93.449   1.47000000e+03 
93.413   1.44900000e+03 
93.377   1.53300000e+03 
93.341   1.57700000e+03 
93.305   1.61500000e+03 
93.270   1.78700000e+03 
93.234   1.72400000e+03 
93.198   1.82300000e+03 
93.162   1.92600000e+03 
93.126   1.93500000e+03 
93.090   2.13300000e+03 
93.054   2.19500000e+03 
93.018   2.22600000e+03 
92.982   2.37100000e+03 
92.946   2.44400000e+03 
92.910   2.45200000e+03 
92.874   2.53800000e+03 
92.838   2.53600000e+03 
92.802   2.71400000e+03 
92.766   2.64600000e+03 
92.730   2.79500000e+03 
92.695   2.75700000e+03 
92.659   2.75400000e+03 
92.623   2.84200000e+03 
92.587   2.88300000e+03 
92.551   2.91200000e+03 
92.515   2.82600000e+03 
92.479   2.94200000e+03 
92.443   2.99900000e+03 
92.407   3.01400000e+03 
92.371   2.94800000e+03 
92.335   2.85500000e+03 
92.299   2.84800000e+03 
92.263   2.98800000e+03 
92.227   2.88600000e+03 
92.191   2.81900000e+03 
92.155   2.87400000e+03 
92.120   2.77800000e+03 
92.084   2.81200000e+03 
92.048   2.75100000e+03 
92.012   2.73500000e+03 
91.976   2.59300000e+03 
91.940   2.61900000e+03 
91.904   2.66900000e+03 
91.868   2.57300000e+03 
91.832   2.56500000e+03 
91.796   2.46300000e+03 
91.760   2.39100000e+03 
91.724   2.36700000e+03 
91.688   2.38800000e+03 
91.652   2.17100000e+03 
91.616   2.21600000e+03 
91.580   2.04500000e+03 
91.545   2.13800000e+03 
91.509   2.12000000e+03 
91.473   1.97400000e+03 
91.437   1.92900000e+03 
91.401   1.81900000e+03 
91.365   1.81500000e+03 
91.329   1.68000000e+03 
91.293   1.64900000e+03 
91.257   1.55500000e+03 
91.221   1.47700000e+03 
91.185   1.44800000e+03 
91.149   1.37500000e+03 
91.113   1.32200000e+03 
91.077   1.24900000e+03 
91.041   1.15500000e+03 
91.005   1.12700000e+03 
90.970   1.02800000e+03 
90.934   9.32000000e+02 
90.898   9.14000000e+02 
90.862   8.10000000e+02 
90.826   7.47000000e+02 
90.790   6.74000000e+02 
90.754   6.39000000e+02 
90.718   6.04000000e+02 
90.682   5.61000000e+02 
90.646   5.06000000e+02 
90.610   4.84000000e+02 
90.574   4.27000000e+02 
90.538   4.43000000e+02 
90.502   4.20000000e+02 
90.466   3.83000000e+02 
90.430   3.68000000e+02 
90.395   3.96000000e+02 
90.359   3.65000000e+02 
90.323   3.37000000e+02 
90.287   3.41000000e+02 
90.251   3.37000000e+02 
90.215   3.49000000e+02 
90.179   2.71000000e+02 
90.143   3.12000000e+02 
90.107   3.19000000e+02 
90.071   3.13000000e+02 
90.035   2.43000000e+02 
89.999   2.49000000e+02 
89.963   2.85000000e+02 
89.927   2.61000000e+02 
89.891   2.50000000e+02 
89.855   2.53000000e+02 
89.820   2.61000000e+02 
89.784   2.80000000e+02 
89.748   2.64000000e+02 
89.712   2.43000000e+02 
89.676   2.20000000e+02 
89.640   2.45000000e+02 
89.604   2.38000000e+02 
89.568   2.36000000e+02 
89.532   2.51000000e+02 
89.496   2.37000000e+02 
89.460   2.38000000e+02 
89.424   2.53000000e+02 
89.388   2.35000000e+02 
89.352   2.22000000e+02 
89.316   2.37000000e+02 
89.280   2.27000000e+02 
89.245   2.41000000e+02 
89.209   2.09000000e+02 
89.173   2.24000000e+02 
89.137   2.08000000e+02 
89.101   2.21000000e+02 
89.065   2.41000000e+02 
89.029   2.23000000e+02 
88.993   2.11000000e+02 
88.957   1.99000000e+02 
88.921   2.38000000e+02 
88.885   1.91000000e+02 
88.849   2.19000000e+02 
88.813   2.26000000e+02 
88.777   2.38000000e+02 
88.741   2.16000000e+02 
88.705   2.32000000e+02 
88.670   2.18000000e+02 
88.634   1.99000000e+02 
88.598   2.08000000e+02 
88.562   1.93000000e+02 
88.526   2.21000000e+02 
88.490   2.10000000e+02 
88.454   1.99000000e+02 
88.418   1.85000000e+02 
88.382   2.02000000e+02 
88.346   1.96000000e+02 
88.310   2.10000000e+02 
88.274   1.92000000e+02 
88.238   2.01000000e+02 
88.202   1.79000000e+02 
88.166   2.14000000e+02 
88.130   2.10000000e+02 
88.095   1.86000000e+02 
88.059   1.89000000e+02 
88.023   2.11000000e+02 

