EXPERIMENT FILE
Version = 2

[ Experiment Parameters ]
Experiment Description= <none> 
Number_of_Regions_in_Experiment= 1 

Original_File_name= C:\alexesca\data\10242012_Au _4f_56nuetral+14_Mono195.xps 
Instrument= HP ESCA West
Date= 10-24-2012
Time=  13:45:23

[ Layer Parameters ]
Layer_Type= XPS

[ Region 1 Parameters ]
Region_Description = Au 4f Dithered Scan                
BEcenter(eV) = 93.000000
BEwidth(eV) = 10.000000
BEstep(eV) = 0.035937
Dwell_Time(sec) = 1.000000
N_o_scans = 1  
N_o_Channels = 278  
Scan_mode = 0  (DITHERED)

[ L= 1 R= 1 ]
BEcenter= 93.000  
BEwidth= -9.955  
Excitation= 1486.600
Time_p_channel= 256.000 
Size= 278
97.977   4.04000000e+02 
97.941   4.19000000e+02 
97.905   4.37000000e+02 
97.870   4.39000000e+02 
97.834   4.24000000e+02 
97.798   4.11000000e+02 
97.762   4.26000000e+02 
97.726   4.16000000e+02 
97.690   4.52000000e+02 
97.654   4.21000000e+02 
97.618   4.17000000e+02 
97.582   4.35000000e+02 
97.546   3.96000000e+02 
97.510   4.29000000e+02 
97.474   4.93000000e+02 
97.438   4.55000000e+02 
97.402   5.11000000e+02 
97.366   4.97000000e+02 
97.330   4.73000000e+02 
97.295   5.02000000e+02 
97.259   4.72000000e+02 
97.223   4.70000000e+02 
97.187   4.91000000e+02 
97.151   4.95000000e+02 
97.115   4.88000000e+02 
97.079   5.03000000e+02 
97.043   5.44000000e+02 
97.007   5.11000000e+02 
96.971   5.13000000e+02 
96.935   5.50000000e+02 
96.899   5.21000000e+02 
96.863   5.71000000e+02 
96.827   5.52000000e+02 
96.791   5.83000000e+02 
96.755   5.85000000e+02 
96.720   6.52000000e+02 
96.684   6.09000000e+02 
96.648   6.79000000e+02 
96.612   6.58000000e+02 
96.576   6.61000000e+02 
96.540   6.94000000e+02 
96.504   7.44000000e+02 
96.468   7.35000000e+02 
96.432   7.47000000e+02 
96.396   7.69000000e+02 
96.360   8.07000000e+02 
96.324   8.31000000e+02 
96.288   8.28000000e+02 
96.252   8.63000000e+02 
96.216   9.32000000e+02 
96.180   8.97000000e+02 
96.145   9.58000000e+02 
96.109   9.62000000e+02 
96.073   9.45000000e+02 
96.037   1.03600000e+03 
96.001   1.03100000e+03 
95.965   1.06400000e+03 
95.929   1.16500000e+03 
95.893   1.17300000e+03 
95.857   1.21300000e+03 
95.821   1.27100000e+03 
95.785   1.27800000e+03 
95.749   1.28600000e+03 
95.713   1.29700000e+03 
95.677   1.33500000e+03 
95.641   1.39000000e+03 
95.605   1.43300000e+03 
95.570   1.50600000e+03 
95.534   1.52600000e+03 
95.498   1.58300000e+03 
95.462   1.65200000e+03 
95.426   1.66300000e+03 
95.390   1.69200000e+03 
95.354   1.76300000e+03 
95.318   1.84100000e+03 
95.282   1.85200000e+03 
95.246   1.86300000e+03 
95.210   1.97400000e+03 
95.174   1.91500000e+03 
95.138   1.96000000e+03 
95.102   2.05800000e+03 
95.066   2.04100000e+03 
95.030   2.09900000e+03 
94.995   2.16900000e+03 
94.959   2.12000000e+03 
94.923   2.17600000e+03 
94.887   2.15700000e+03 
94.851   2.11400000e+03 
94.815   2.09100000e+03 
94.779   2.06100000e+03 
94.743   2.06600000e+03 
94.707   2.01100000e+03 
94.671   1.92200000e+03 
94.635   1.88000000e+03 
94.599   1.79600000e+03 
94.563   1.71400000e+03 
94.527   1.68800000e+03 
94.491   1.52700000e+03 
94.455   1.51000000e+03 
94.420   1.36000000e+03 
94.384   1.24000000e+03 
94.348   1.17800000e+03 
94.312   1.10600000e+03 
94.276   1.00900000e+03 
94.240   9.24000000e+02 
94.204   9.15000000e+02 
94.168   8.04000000e+02 
94.132   7.64000000e+02 
94.096   7.30000000e+02 
94.060   6.84000000e+02 
94.024   6.23000000e+02 
93.988   5.99000000e+02 
93.952   5.74000000e+02 
93.916   5.75000000e+02 
93.880   5.54000000e+02 
93.845   5.67000000e+02 
93.809   5.44000000e+02 
93.773   4.77000000e+02 
93.737   5.01000000e+02 
93.701   5.06000000e+02 
93.665   5.02000000e+02 
93.629   4.87000000e+02 
93.593   4.88000000e+02 
93.557   5.16000000e+02 
93.521   4.87000000e+02 
93.485   5.03000000e+02 
93.449   4.65000000e+02 
93.413   4.98000000e+02 
93.377   5.40000000e+02 
93.341   4.87000000e+02 
93.305   5.32000000e+02 
93.270   5.36000000e+02 
93.234   5.51000000e+02 
93.198   5.53000000e+02 
93.162   5.79000000e+02 
93.126   5.98000000e+02 
93.090   5.92000000e+02 
93.054   6.08000000e+02 
93.018   6.57000000e+02 
92.982   6.42000000e+02 
92.946   7.18000000e+02 
92.910   7.07000000e+02 
92.874   7.58000000e+02 
92.838   7.09000000e+02 
92.802   7.19000000e+02 
92.766   8.05000000e+02 
92.730   7.75000000e+02 
92.695   8.56000000e+02 
92.659   9.02000000e+02 
92.623   9.07000000e+02 
92.587   9.09000000e+02 
92.551   1.01000000e+03 
92.515   9.99000000e+02 
92.479   9.95000000e+02 
92.443   1.07700000e+03 
92.407   1.08700000e+03 
92.371   1.12900000e+03 
92.335   1.09900000e+03 
92.299   1.19000000e+03 
92.263   1.29600000e+03 
92.227   1.27100000e+03 
92.191   1.34800000e+03 
92.155   1.34500000e+03 
92.120   1.40600000e+03 
92.084   1.45200000e+03 
92.048   1.55500000e+03 
92.012   1.55100000e+03 
91.976   1.61800000e+03 
91.940   1.69700000e+03 
91.904   1.72200000e+03 
91.868   1.70200000e+03 
91.832   1.86000000e+03 
91.796   1.82300000e+03 
91.760   2.00000000e+03 
91.724   2.01600000e+03 
91.688   2.03800000e+03 
91.652   2.16700000e+03 
91.616   2.18800000e+03 
91.580   2.13700000e+03 
91.545   2.18900000e+03 
91.509   2.35600000e+03 
91.473   2.31200000e+03 
91.437   2.40700000e+03 
91.401   2.37300000e+03 
91.365   2.55200000e+03 
91.329   2.44100000e+03 
91.293   2.49200000e+03 
91.257   2.54900000e+03 
91.221   2.43700000e+03 
91.185   2.50700000e+03 
91.149   2.56600000e+03 
91.113   2.51900000e+03 
91.077   2.46300000e+03 
91.041   2.33700000e+03 
91.005   2.32000000e+03 
90.970   2.18600000e+03 
90.934   2.12500000e+03 
90.898   2.04800000e+03 
90.862   1.96600000e+03 
90.826   1.81100000e+03 
90.790   1.71800000e+03 
90.754   1.55800000e+03 
90.718   1.41300000e+03 
90.682   1.35400000e+03 
90.646   1.09600000e+03 
90.610   1.03700000e+03 
90.574   9.42000000e+02 
90.538   8.21000000e+02 
90.502   7.33000000e+02 
90.466   6.58000000e+02 
90.430   6.21000000e+02 
90.395   5.54000000e+02 
90.359   5.09000000e+02 
90.323   4.41000000e+02 
90.287   4.12000000e+02 
90.251   4.22000000e+02 
90.215   3.76000000e+02 
90.179   3.63000000e+02 
90.143   3.67000000e+02 
90.107   3.38000000e+02 
90.071   3.40000000e+02 
90.035   3.07000000e+02 
89.999   3.19000000e+02 
89.963   3.19000000e+02 
89.927   2.63000000e+02 
89.891   2.48000000e+02 
89.855   2.56000000e+02 
89.820   2.72000000e+02 
89.784   2.57000000e+02 
89.748   2.30000000e+02 
89.712   2.68000000e+02 
89.676   2.46000000e+02 
89.640   2.26000000e+02 
89.604   2.19000000e+02 
89.568   2.09000000e+02 
89.532   1.95000000e+02 
89.496   2.21000000e+02 
89.460   1.79000000e+02 
89.424   2.01000000e+02 
89.388   1.87000000e+02 
89.352   2.21000000e+02 
89.316   1.68000000e+02 
89.280   2.18000000e+02 
89.245   1.89000000e+02 
89.209   1.99000000e+02 
89.173   2.07000000e+02 
89.137   2.03000000e+02 
89.101   1.81000000e+02 
89.065   1.92000000e+02 
89.029   1.73000000e+02 
88.993   1.95000000e+02 
88.957   1.87000000e+02 
88.921   1.67000000e+02 
88.885   1.83000000e+02 
88.849   2.02000000e+02 
88.813   1.71000000e+02 
88.777   1.63000000e+02 
88.741   1.78000000e+02 
88.705   1.63000000e+02 
88.670   1.77000000e+02 
88.634   1.59000000e+02 
88.598   1.59000000e+02 
88.562   1.53000000e+02 
88.526   1.50000000e+02 
88.490   1.48000000e+02 
88.454   1.51000000e+02 
88.418   1.63000000e+02 
88.382   1.60000000e+02 
88.346   1.64000000e+02 
88.310   1.58000000e+02 
88.274   1.82000000e+02 
88.238   1.65000000e+02 
88.202   1.70000000e+02 
88.166   1.46000000e+02 
88.130   1.73000000e+02 
88.095   1.52000000e+02 
88.059   1.70000000e+02 
88.023   1.66000000e+02 

