EXPERIMENT FILE
Version = 2

[ Experiment Parameters ]
Experiment Description= <none> 
Number_of_Regions_in_Experiment= 1 

Original_File_name= C:\alexesca\data\10242012_Au _4f_59nuetral+11_Mono222.xps 
Instrument= HP ESCA West
Date= 10-24-2012
Time=  17:43:31

[ Layer Parameters ]
Layer_Type= XPS

[ Region 1 Parameters ]
Region_Description = Au 4f Dithered Scan                
BEcenter(eV) = 93.000000
BEwidth(eV) = 10.000000
BEstep(eV) = 0.035937
Dwell_Time(sec) = 1.000000
N_o_scans = 1  
N_o_Channels = 278  
Scan_mode = 0  (DITHERED)

[ L= 1 R= 1 ]
BEcenter= 93.000  
BEwidth= -9.955  
Excitation= 1486.600
Time_p_channel= 256.000 
Size= 278
97.977   4.35000000e+02 
97.941   4.77000000e+02 
97.905   4.59000000e+02 
97.870   5.02000000e+02 
97.834   4.56000000e+02 
97.798   4.47000000e+02 
97.762   4.94000000e+02 
97.726   4.89000000e+02 
97.690   4.87000000e+02 
97.654   5.17000000e+02 
97.618   4.83000000e+02 
97.582   5.26000000e+02 
97.546   5.45000000e+02 
97.510   5.84000000e+02 
97.474   5.12000000e+02 
97.438   5.66000000e+02 
97.402   5.66000000e+02 
97.366   5.96000000e+02 
97.330   5.61000000e+02 
97.295   6.06000000e+02 
97.259   6.03000000e+02 
97.223   5.96000000e+02 
97.187   6.58000000e+02 
97.151   6.81000000e+02 
97.115   6.96000000e+02 
97.079   7.54000000e+02 
97.043   7.49000000e+02 
97.007   7.24000000e+02 
96.971   7.46000000e+02 
96.935   7.45000000e+02 
96.899   8.10000000e+02 
96.863   8.39000000e+02 
96.827   8.76000000e+02 
96.791   8.89000000e+02 
96.755   9.32000000e+02 
96.720   9.94000000e+02 
96.684   9.86000000e+02 
96.648   1.00900000e+03 
96.612   1.03200000e+03 
96.576   1.07900000e+03 
96.540   1.14500000e+03 
96.504   1.14800000e+03 
96.468   1.25400000e+03 
96.432   1.26700000e+03 
96.396   1.29900000e+03 
96.360   1.24400000e+03 
96.324   1.29200000e+03 
96.288   1.42000000e+03 
96.252   1.43500000e+03 
96.216   1.42900000e+03 
96.180   1.44500000e+03 
96.145   1.58600000e+03 
96.109   1.63400000e+03 
96.073   1.67800000e+03 
96.037   1.70100000e+03 
96.001   1.69600000e+03 
95.965   1.74100000e+03 
95.929   1.82000000e+03 
95.893   1.84600000e+03 
95.857   1.83900000e+03 
95.821   1.91900000e+03 
95.785   1.98300000e+03 
95.749   1.91100000e+03 
95.713   2.01500000e+03 
95.677   2.01800000e+03 
95.641   2.17800000e+03 
95.605   2.00700000e+03 
95.570   2.09200000e+03 
95.534   2.16700000e+03 
95.498   2.11500000e+03 
95.462   2.09800000e+03 
95.426   2.10900000e+03 
95.390   2.13400000e+03 
95.354   2.11300000e+03 
95.318   2.07800000e+03 
95.282   2.04300000e+03 
95.246   2.01000000e+03 
95.210   2.03000000e+03 
95.174   1.97200000e+03 
95.138   1.98300000e+03 
95.102   1.91800000e+03 
95.066   1.87800000e+03 
95.030   1.70500000e+03 
94.995   1.68100000e+03 
94.959   1.62300000e+03 
94.923   1.58900000e+03 
94.887   1.47900000e+03 
94.851   1.43400000e+03 
94.815   1.28300000e+03 
94.779   1.23600000e+03 
94.743   1.20300000e+03 
94.707   1.08700000e+03 
94.671   9.78000000e+02 
94.635   9.72000000e+02 
94.599   8.98000000e+02 
94.563   8.93000000e+02 
94.527   7.63000000e+02 
94.491   7.33000000e+02 
94.455   7.55000000e+02 
94.420   6.67000000e+02 
94.384   6.74000000e+02 
94.348   6.31000000e+02 
94.312   6.14000000e+02 
94.276   6.12000000e+02 
94.240   5.87000000e+02 
94.204   5.52000000e+02 
94.168   5.18000000e+02 
94.132   5.52000000e+02 
94.096   5.78000000e+02 
94.060   5.52000000e+02 
94.024   5.73000000e+02 
93.988   5.29000000e+02 
93.952   5.32000000e+02 
93.916   5.47000000e+02 
93.880   5.42000000e+02 
93.845   5.86000000e+02 
93.809   5.69000000e+02 
93.773   5.82000000e+02 
93.737   5.66000000e+02 
93.701   5.99000000e+02 
93.665   5.89000000e+02 
93.629   5.82000000e+02 
93.593   6.28000000e+02 
93.557   5.92000000e+02 
93.521   6.15000000e+02 
93.485   7.15000000e+02 
93.449   6.85000000e+02 
93.413   7.21000000e+02 
93.377   7.99000000e+02 
93.341   7.96000000e+02 
93.305   7.83000000e+02 
93.270   8.27000000e+02 
93.234   8.04000000e+02 
93.198   9.51000000e+02 
93.162   9.26000000e+02 
93.126   9.78000000e+02 
93.090   1.05500000e+03 
93.054   1.04000000e+03 
93.018   1.08100000e+03 
92.982   1.10500000e+03 
92.946   1.22000000e+03 
92.910   1.22500000e+03 
92.874   1.22500000e+03 
92.838   1.28600000e+03 
92.802   1.34600000e+03 
92.766   1.34700000e+03 
92.730   1.40300000e+03 
92.695   1.51600000e+03 
92.659   1.61700000e+03 
92.623   1.59800000e+03 
92.587   1.64900000e+03 
92.551   1.70500000e+03 
92.515   1.80300000e+03 
92.479   1.78700000e+03 
92.443   1.87800000e+03 
92.407   1.95600000e+03 
92.371   1.99600000e+03 
92.335   2.02900000e+03 
92.299   2.07000000e+03 
92.263   2.15800000e+03 
92.227   2.12800000e+03 
92.191   2.21600000e+03 
92.155   2.24800000e+03 
92.120   2.32500000e+03 
92.084   2.38400000e+03 
92.048   2.34600000e+03 
92.012   2.43600000e+03 
91.976   2.35800000e+03 
91.940   2.53000000e+03 
91.904   2.54200000e+03 
91.868   2.49300000e+03 
91.832   2.52600000e+03 
91.796   2.50800000e+03 
91.760   2.50000000e+03 
91.724   2.45800000e+03 
91.688   2.57900000e+03 
91.652   2.40900000e+03 
91.616   2.43000000e+03 
91.580   2.47700000e+03 
91.545   2.34900000e+03 
91.509   2.28700000e+03 
91.473   2.26900000e+03 
91.437   2.22600000e+03 
91.401   2.17000000e+03 
91.365   2.00400000e+03 
91.329   1.99300000e+03 
91.293   1.76700000e+03 
91.257   1.74300000e+03 
91.221   1.66100000e+03 
91.185   1.61200000e+03 
91.149   1.42600000e+03 
91.113   1.30600000e+03 
91.077   1.26900000e+03 
91.041   1.15300000e+03 
91.005   1.08500000e+03 
90.970   9.47000000e+02 
90.934   8.95000000e+02 
90.898   8.06000000e+02 
90.862   7.34000000e+02 
90.826   6.57000000e+02 
90.790   6.19000000e+02 
90.754   5.84000000e+02 
90.718   5.02000000e+02 
90.682   4.88000000e+02 
90.646   4.70000000e+02 
90.610   4.40000000e+02 
90.574   4.03000000e+02 
90.538   3.95000000e+02 
90.502   3.77000000e+02 
90.466   3.39000000e+02 
90.430   3.24000000e+02 
90.395   2.80000000e+02 
90.359   2.92000000e+02 
90.323   2.93000000e+02 
90.287   2.97000000e+02 
90.251   2.64000000e+02 
90.215   2.65000000e+02 
90.179   2.71000000e+02 
90.143   2.43000000e+02 
90.107   2.94000000e+02 
90.071   2.45000000e+02 
90.035   2.47000000e+02 
89.999   2.21000000e+02 
89.963   2.68000000e+02 
89.927   2.01000000e+02 
89.891   1.92000000e+02 
89.855   2.04000000e+02 
89.820   2.24000000e+02 
89.784   2.43000000e+02 
89.748   2.15000000e+02 
89.712   2.08000000e+02 
89.676   2.25000000e+02 
89.640   1.89000000e+02 
89.604   2.11000000e+02 
89.568   2.02000000e+02 
89.532   2.09000000e+02 
89.496   2.25000000e+02 
89.460   1.87000000e+02 
89.424   1.83000000e+02 
89.388   2.17000000e+02 
89.352   1.83000000e+02 
89.316   1.89000000e+02 
89.280   1.81000000e+02 
89.245   1.97000000e+02 
89.209   2.03000000e+02 
89.173   2.00000000e+02 
89.137   1.92000000e+02 
89.101   1.73000000e+02 
89.065   2.00000000e+02 
89.029   2.02000000e+02 
88.993   1.78000000e+02 
88.957   1.82000000e+02 
88.921   1.88000000e+02 
88.885   1.50000000e+02 
88.849   1.83000000e+02 
88.813   1.86000000e+02 
88.777   1.85000000e+02 
88.741   1.86000000e+02 
88.705   1.89000000e+02 
88.670   1.92000000e+02 
88.634   1.82000000e+02 
88.598   1.69000000e+02 
88.562   1.72000000e+02 
88.526   1.89000000e+02 
88.490   1.63000000e+02 
88.454   1.58000000e+02 
88.418   1.79000000e+02 
88.382   1.86000000e+02 
88.346   1.72000000e+02 
88.310   1.49000000e+02 
88.274   1.63000000e+02 
88.238   1.56000000e+02 
88.202   1.78000000e+02 
88.166   1.63000000e+02 
88.130   1.59000000e+02 
88.095   1.65000000e+02 
88.059   1.63000000e+02 
88.023   1.70000000e+02 

