EXPERIMENT FILE
Version = 2

[ Experiment Parameters ]
Experiment Description= <none> 
Number_of_Regions_in_Experiment= 1 

Original_File_name= C:\alexesca\data\10242012_Au _4f_56nuetral-6_Mono220.xps 
Instrument= HP ESCA West
Date= 10-24-2012
Time=  15:51:20

[ Layer Parameters ]
Layer_Type= XPS

[ Region 1 Parameters ]
Region_Description = Au 4f Dithered Scan                
BEcenter(eV) = 93.000000
BEwidth(eV) = 10.000000
BEstep(eV) = 0.035937
Dwell_Time(sec) = 1.000000
N_o_scans = 1  
N_o_Channels = 278  
Scan_mode = 0  (DITHERED)

[ L= 1 R= 1 ]
BEcenter= 93.000  
BEwidth= -9.955  
Excitation= 1486.600
Time_p_channel= 256.000 
Size= 278
97.977   2.81000000e+02 
97.941   2.74000000e+02 
97.905   3.07000000e+02 
97.870   3.10000000e+02 
97.834   2.79000000e+02 
97.798   2.91000000e+02 
97.762   2.85000000e+02 
97.726   2.73000000e+02 
97.690   2.91000000e+02 
97.654   2.97000000e+02 
97.618   3.09000000e+02 
97.582   2.65000000e+02 
97.546   3.17000000e+02 
97.510   3.13000000e+02 
97.474   2.94000000e+02 
97.438   2.91000000e+02 
97.402   3.03000000e+02 
97.366   3.48000000e+02 
97.330   2.81000000e+02 
97.295   3.14000000e+02 
97.259   2.71000000e+02 
97.223   3.34000000e+02 
97.187   3.62000000e+02 
97.151   3.45000000e+02 
97.115   3.31000000e+02 
97.079   3.75000000e+02 
97.043   3.57000000e+02 
97.007   3.78000000e+02 
96.971   3.72000000e+02 
96.935   4.20000000e+02 
96.899   3.83000000e+02 
96.863   3.86000000e+02 
96.827   4.07000000e+02 
96.791   4.32000000e+02 
96.755   4.74000000e+02 
96.720   4.56000000e+02 
96.684   4.92000000e+02 
96.648   4.99000000e+02 
96.612   5.43000000e+02 
96.576   4.63000000e+02 
96.540   5.22000000e+02 
96.504   5.51000000e+02 
96.468   5.95000000e+02 
96.432   5.73000000e+02 
96.396   5.99000000e+02 
96.360   6.46000000e+02 
96.324   6.14000000e+02 
96.288   6.56000000e+02 
96.252   6.95000000e+02 
96.216   7.52000000e+02 
96.180   7.26000000e+02 
96.145   8.32000000e+02 
96.109   8.07000000e+02 
96.073   8.61000000e+02 
96.037   9.23000000e+02 
96.001   9.44000000e+02 
95.965   9.49000000e+02 
95.929   9.93000000e+02 
95.893   1.04400000e+03 
95.857   1.08400000e+03 
95.821   1.13300000e+03 
95.785   1.20700000e+03 
95.749   1.21200000e+03 
95.713   1.30900000e+03 
95.677   1.19500000e+03 
95.641   1.28800000e+03 
95.605   1.35700000e+03 
95.570   1.38100000e+03 
95.534   1.41300000e+03 
95.498   1.34100000e+03 
95.462   1.46200000e+03 
95.426   1.41900000e+03 
95.390   1.49900000e+03 
95.354   1.43400000e+03 
95.318   1.54900000e+03 
95.282   1.50100000e+03 
95.246   1.52700000e+03 
95.210   1.54700000e+03 
95.174   1.48600000e+03 
95.138   1.43000000e+03 
95.102   1.35600000e+03 
95.066   1.28900000e+03 
95.030   1.20800000e+03 
94.995   1.17300000e+03 
94.959   1.00600000e+03 
94.923   1.08400000e+03 
94.887   9.26000000e+02 
94.851   8.09000000e+02 
94.815   7.87000000e+02 
94.779   7.27000000e+02 
94.743   6.21000000e+02 
94.707   6.31000000e+02 
94.671   5.74000000e+02 
94.635   4.69000000e+02 
94.599   4.44000000e+02 
94.563   4.66000000e+02 
94.527   4.29000000e+02 
94.491   3.98000000e+02 
94.455   4.02000000e+02 
94.420   3.76000000e+02 
94.384   3.79000000e+02 
94.348   3.55000000e+02 
94.312   3.28000000e+02 
94.276   3.38000000e+02 
94.240   3.39000000e+02 
94.204   3.30000000e+02 
94.168   3.16000000e+02 
94.132   3.07000000e+02 
94.096   3.24000000e+02 
94.060   3.00000000e+02 
94.024   2.89000000e+02 
93.988   2.81000000e+02 
93.952   3.01000000e+02 
93.916   3.21000000e+02 
93.880   3.06000000e+02 
93.845   3.07000000e+02 
93.809   2.95000000e+02 
93.773   3.00000000e+02 
93.737   2.99000000e+02 
93.701   3.17000000e+02 
93.665   3.00000000e+02 
93.629   3.44000000e+02 
93.593   3.06000000e+02 
93.557   3.23000000e+02 
93.521   2.97000000e+02 
93.485   3.33000000e+02 
93.449   3.27000000e+02 
93.413   3.50000000e+02 
93.377   3.30000000e+02 
93.341   3.50000000e+02 
93.305   3.37000000e+02 
93.270   3.75000000e+02 
93.234   4.23000000e+02 
93.198   3.90000000e+02 
93.162   3.91000000e+02 
93.126   4.77000000e+02 
93.090   4.49000000e+02 
93.054   4.83000000e+02 
93.018   4.88000000e+02 
92.982   5.17000000e+02 
92.946   5.07000000e+02 
92.910   5.66000000e+02 
92.874   5.35000000e+02 
92.838   5.61000000e+02 
92.802   6.20000000e+02 
92.766   6.38000000e+02 
92.730   6.53000000e+02 
92.695   6.79000000e+02 
92.659   7.62000000e+02 
92.623   7.62000000e+02 
92.587   7.19000000e+02 
92.551   8.13000000e+02 
92.515   8.27000000e+02 
92.479   9.19000000e+02 
92.443   8.84000000e+02 
92.407   9.42000000e+02 
92.371   1.02600000e+03 
92.335   1.04100000e+03 
92.299   1.11400000e+03 
92.263   1.17200000e+03 
92.227   1.23000000e+03 
92.191   1.20500000e+03 
92.155   1.27500000e+03 
92.120   1.32300000e+03 
92.084   1.43800000e+03 
92.048   1.45200000e+03 
92.012   1.47800000e+03 
91.976   1.61600000e+03 
91.940   1.56000000e+03 
91.904   1.62000000e+03 
91.868   1.75000000e+03 
91.832   1.67200000e+03 
91.796   1.80700000e+03 
91.760   1.76100000e+03 
91.724   1.83900000e+03 
91.688   1.81000000e+03 
91.652   1.82300000e+03 
91.616   1.84500000e+03 
91.580   1.80100000e+03 
91.545   1.78700000e+03 
91.509   1.76300000e+03 
91.473   1.71900000e+03 
91.437   1.60100000e+03 
91.401   1.51600000e+03 
91.365   1.44900000e+03 
91.329   1.34300000e+03 
91.293   1.25200000e+03 
91.257   1.15400000e+03 
91.221   1.06600000e+03 
91.185   9.48000000e+02 
91.149   8.46000000e+02 
91.113   7.77000000e+02 
91.077   7.22000000e+02 
91.041   6.03000000e+02 
91.005   5.96000000e+02 
90.970   4.64000000e+02 
90.934   5.11000000e+02 
90.898   3.97000000e+02 
90.862   3.84000000e+02 
90.826   3.26000000e+02 
90.790   3.28000000e+02 
90.754   2.94000000e+02 
90.718   2.96000000e+02 
90.682   2.60000000e+02 
90.646   2.19000000e+02 
90.610   2.38000000e+02 
90.574   2.59000000e+02 
90.538   2.35000000e+02 
90.502   2.20000000e+02 
90.466   2.11000000e+02 
90.430   1.91000000e+02 
90.395   1.91000000e+02 
90.359   1.80000000e+02 
90.323   1.75000000e+02 
90.287   1.92000000e+02 
90.251   1.62000000e+02 
90.215   1.89000000e+02 
90.179   1.42000000e+02 
90.143   1.48000000e+02 
90.107   1.74000000e+02 
90.071   1.45000000e+02 
90.035   1.42000000e+02 
89.999   1.33000000e+02 
89.963   1.57000000e+02 
89.927   1.54000000e+02 
89.891   1.43000000e+02 
89.855   1.40000000e+02 
89.820   1.65000000e+02 
89.784   1.34000000e+02 
89.748   1.44000000e+02 
89.712   1.62000000e+02 
89.676   1.37000000e+02 
89.640   1.31000000e+02 
89.604   1.46000000e+02 
89.568   1.23000000e+02 
89.532   1.31000000e+02 
89.496   1.25000000e+02 
89.460   1.46000000e+02 
89.424   1.09000000e+02 
89.388   1.24000000e+02 
89.352   1.29000000e+02 
89.316   1.15000000e+02 
89.280   1.25000000e+02 
89.245   1.10000000e+02 
89.209   1.15000000e+02 
89.173   1.11000000e+02 
89.137   1.17000000e+02 
89.101   1.21000000e+02 
89.065   1.18000000e+02 
89.029   1.18000000e+02 
88.993   1.14000000e+02 
88.957   1.21000000e+02 
88.921   1.08000000e+02 
88.885   1.12000000e+02 
88.849   9.90000000e+01 
88.813   1.12000000e+02 
88.777   1.06000000e+02 
88.741   1.14000000e+02 
88.705   1.04000000e+02 
88.670   1.04000000e+02 
88.634   1.08000000e+02 
88.598   1.11000000e+02 
88.562   1.12000000e+02 
88.526   8.60000000e+01 
88.490   1.15000000e+02 
88.454   1.12000000e+02 
88.418   1.20000000e+02 
88.382   9.30000000e+01 
88.346   1.02000000e+02 
88.310   1.18000000e+02 
88.274   1.27000000e+02 
88.238   1.14000000e+02 
88.202   9.60000000e+01 
88.166   1.16000000e+02 
88.130   1.09000000e+02 
88.095   1.10000000e+02 
88.059   1.08000000e+02 
88.023   9.90000000e+01 

