EXPERIMENT FILE
Version = 2

[ Experiment Parameters ]
Experiment Description= <none> 
Number_of_Regions_in_Experiment= 1 

Original_File_name= C:\alexesca\data\10242012_Au _4f_59nuetral+36_Mono222.xps 
Instrument= HP ESCA West
Date= 10-24-2012
Time=  18:08:57

[ Layer Parameters ]
Layer_Type= XPS

[ Region 1 Parameters ]
Region_Description = Au 4f Dithered Scan                
BEcenter(eV) = 93.000000
BEwidth(eV) = 10.000000
BEstep(eV) = 0.035937
Dwell_Time(sec) = 1.000000
N_o_scans = 1  
N_o_Channels = 278  
Scan_mode = 0  (DITHERED)

[ L= 1 R= 1 ]
BEcenter= 93.000  
BEwidth= -9.955  
Excitation= 1486.600
Time_p_channel= 256.000 
Size= 278
97.977   6.60000000e+02 
97.941   6.77000000e+02 
97.905   6.55000000e+02 
97.870   6.74000000e+02 
97.834   6.58000000e+02 
97.798   6.83000000e+02 
97.762   7.03000000e+02 
97.726   7.03000000e+02 
97.690   7.19000000e+02 
97.654   7.34000000e+02 
97.618   7.43000000e+02 
97.582   7.58000000e+02 
97.546   7.88000000e+02 
97.510   7.78000000e+02 
97.474   8.17000000e+02 
97.438   8.28000000e+02 
97.402   8.41000000e+02 
97.366   9.49000000e+02 
97.330   8.90000000e+02 
97.295   9.13000000e+02 
97.259   9.52000000e+02 
97.223   9.80000000e+02 
97.187   9.91000000e+02 
97.151   1.06000000e+03 
97.115   1.09500000e+03 
97.079   1.09600000e+03 
97.043   1.14100000e+03 
97.007   1.20100000e+03 
96.971   1.22200000e+03 
96.935   1.29600000e+03 
96.899   1.29600000e+03 
96.863   1.41300000e+03 
96.827   1.35100000e+03 
96.791   1.47700000e+03 
96.755   1.45400000e+03 
96.720   1.47400000e+03 
96.684   1.53000000e+03 
96.648   1.63600000e+03 
96.612   1.73400000e+03 
96.576   1.80800000e+03 
96.540   1.86600000e+03 
96.504   1.83400000e+03 
96.468   1.90000000e+03 
96.432   1.92700000e+03 
96.396   2.05400000e+03 
96.360   1.89500000e+03 
96.324   2.00300000e+03 
96.288   2.00300000e+03 
96.252   2.12600000e+03 
96.216   2.11600000e+03 
96.180   2.18100000e+03 
96.145   2.20700000e+03 
96.109   2.16300000e+03 
96.073   2.20600000e+03 
96.037   2.31700000e+03 
96.001   2.35800000e+03 
95.965   2.28400000e+03 
95.929   2.28200000e+03 
95.893   2.35600000e+03 
95.857   2.41500000e+03 
95.821   2.31700000e+03 
95.785   2.26800000e+03 
95.749   2.36400000e+03 
95.713   2.28700000e+03 
95.677   2.33300000e+03 
95.641   2.34700000e+03 
95.605   2.47600000e+03 
95.570   2.26000000e+03 
95.534   2.42200000e+03 
95.498   2.38900000e+03 
95.462   2.33600000e+03 
95.426   2.39300000e+03 
95.390   2.28400000e+03 
95.354   2.34400000e+03 
95.318   2.25500000e+03 
95.282   2.37700000e+03 
95.246   2.41300000e+03 
95.210   2.34900000e+03 
95.174   2.33600000e+03 
95.138   2.29000000e+03 
95.102   2.30200000e+03 
95.066   2.16300000e+03 
95.030   2.20400000e+03 
94.995   2.13300000e+03 
94.959   2.19200000e+03 
94.923   2.13500000e+03 
94.887   2.07800000e+03 
94.851   1.97400000e+03 
94.815   2.02000000e+03 
94.779   1.97300000e+03 
94.743   1.84800000e+03 
94.707   1.80000000e+03 
94.671   1.71000000e+03 
94.635   1.69000000e+03 
94.599   1.61100000e+03 
94.563   1.58000000e+03 
94.527   1.53300000e+03 
94.491   1.44200000e+03 
94.455   1.35400000e+03 
94.420   1.26300000e+03 
94.384   1.23200000e+03 
94.348   1.12100000e+03 
94.312   1.10300000e+03 
94.276   1.08100000e+03 
94.240   1.02600000e+03 
94.204   9.51000000e+02 
94.168   9.37000000e+02 
94.132   9.24000000e+02 
94.096   8.75000000e+02 
94.060   8.88000000e+02 
94.024   8.40000000e+02 
93.988   8.24000000e+02 
93.952   8.38000000e+02 
93.916   8.93000000e+02 
93.880   8.86000000e+02 
93.845   8.77000000e+02 
93.809   8.86000000e+02 
93.773   9.23000000e+02 
93.737   9.38000000e+02 
93.701   1.02000000e+03 
93.665   9.46000000e+02 
93.629   9.71000000e+02 
93.593   1.09700000e+03 
93.557   1.05200000e+03 
93.521   1.08300000e+03 
93.485   1.10300000e+03 
93.449   1.17400000e+03 
93.413   1.20300000e+03 
93.377   1.20000000e+03 
93.341   1.29000000e+03 
93.305   1.38000000e+03 
93.270   1.36200000e+03 
93.234   1.41700000e+03 
93.198   1.52500000e+03 
93.162   1.55300000e+03 
93.126   1.64900000e+03 
93.090   1.78700000e+03 
93.054   1.80400000e+03 
93.018   1.80300000e+03 
92.982   1.86600000e+03 
92.946   1.94800000e+03 
92.910   1.93200000e+03 
92.874   2.03900000e+03 
92.838   2.17500000e+03 
92.802   2.27100000e+03 
92.766   2.16000000e+03 
92.730   2.24400000e+03 
92.695   2.33800000e+03 
92.659   2.51300000e+03 
92.623   2.40000000e+03 
92.587   2.42800000e+03 
92.551   2.50200000e+03 
92.515   2.50500000e+03 
92.479   2.58500000e+03 
92.443   2.49500000e+03 
92.407   2.66100000e+03 
92.371   2.58800000e+03 
92.335   2.68300000e+03 
92.299   2.72400000e+03 
92.263   2.76300000e+03 
92.227   2.69500000e+03 
92.191   2.67300000e+03 
92.155   2.65000000e+03 
92.120   2.70600000e+03 
92.084   2.68300000e+03 
92.048   2.67900000e+03 
92.012   2.73800000e+03 
91.976   2.78700000e+03 
91.940   2.83000000e+03 
91.904   2.66600000e+03 
91.868   2.67800000e+03 
91.832   2.69300000e+03 
91.796   2.75800000e+03 
91.760   2.70600000e+03 
91.724   2.74700000e+03 
91.688   2.71500000e+03 
91.652   2.63100000e+03 
91.616   2.50700000e+03 
91.580   2.68100000e+03 
91.545   2.68500000e+03 
91.509   2.50400000e+03 
91.473   2.57500000e+03 
91.437   2.50200000e+03 
91.401   2.53100000e+03 
91.365   2.47200000e+03 
91.329   2.44900000e+03 
91.293   2.38900000e+03 
91.257   2.36400000e+03 
91.221   2.34700000e+03 
91.185   2.28500000e+03 
91.149   2.21200000e+03 
91.113   2.13800000e+03 
91.077   2.10100000e+03 
91.041   2.02300000e+03 
91.005   1.92800000e+03 
90.970   1.78400000e+03 
90.934   1.67200000e+03 
90.898   1.65300000e+03 
90.862   1.40700000e+03 
90.826   1.36700000e+03 
90.790   1.24200000e+03 
90.754   1.13100000e+03 
90.718   1.08200000e+03 
90.682   9.75000000e+02 
90.646   8.79000000e+02 
90.610   8.28000000e+02 
90.574   7.66000000e+02 
90.538   7.77000000e+02 
90.502   6.40000000e+02 
90.466   6.40000000e+02 
90.430   5.83000000e+02 
90.395   5.34000000e+02 
90.359   4.69000000e+02 
90.323   4.57000000e+02 
90.287   4.61000000e+02 
90.251   4.15000000e+02 
90.215   3.76000000e+02 
90.179   3.98000000e+02 
90.143   3.76000000e+02 
90.107   3.87000000e+02 
90.071   3.68000000e+02 
90.035   3.65000000e+02 
89.999   3.11000000e+02 
89.963   3.52000000e+02 
89.927   3.08000000e+02 
89.891   3.17000000e+02 
89.855   3.25000000e+02 
89.820   3.00000000e+02 
89.784   2.98000000e+02 
89.748   2.99000000e+02 
89.712   3.07000000e+02 
89.676   2.98000000e+02 
89.640   2.71000000e+02 
89.604   2.88000000e+02 
89.568   2.85000000e+02 
89.532   2.87000000e+02 
89.496   2.77000000e+02 
89.460   2.53000000e+02 
89.424   2.25000000e+02 
89.388   2.49000000e+02 
89.352   2.41000000e+02 
89.316   2.63000000e+02 
89.280   2.70000000e+02 
89.245   2.42000000e+02 
89.209   2.45000000e+02 
89.173   2.55000000e+02 
89.137   2.28000000e+02 
89.101   2.58000000e+02 
89.065   2.40000000e+02 
89.029   2.44000000e+02 
88.993   2.56000000e+02 
88.957   2.46000000e+02 
88.921   2.32000000e+02 
88.885   2.36000000e+02 
88.849   2.27000000e+02 
88.813   2.34000000e+02 
88.777   2.47000000e+02 
88.741   2.28000000e+02 
88.705   2.42000000e+02 
88.670   2.29000000e+02 
88.634   2.10000000e+02 
88.598   2.31000000e+02 
88.562   1.90000000e+02 
88.526   2.27000000e+02 
88.490   2.16000000e+02 
88.454   2.10000000e+02 
88.418   2.32000000e+02 
88.382   2.31000000e+02 
88.346   2.44000000e+02 
88.310   2.15000000e+02 
88.274   2.08000000e+02 
88.238   2.15000000e+02 
88.202   2.11000000e+02 
88.166   2.34000000e+02 
88.130   2.16000000e+02 
88.095   2.21000000e+02 
88.059   2.05000000e+02 
88.023   2.46000000e+02 

