EXPERIMENT FILE
Version = 2

[ Experiment Parameters ]
Experiment Description= <none> 
Number_of_Regions_in_Experiment= 1 

Original_File_name= C:\alexesca\data\10242012_Au _4f_56nuetral+39_Mono195.xps 
Instrument= HP ESCA West
Date= 10-24-2012
Time=  13:30:41

[ Layer Parameters ]
Layer_Type= XPS

[ Region 1 Parameters ]
Region_Description = Au 4f Dithered Scan                
BEcenter(eV) = 93.000000
BEwidth(eV) = 10.000000
BEstep(eV) = 0.035937
Dwell_Time(sec) = 1.000000
N_o_scans = 1  
N_o_Channels = 278  
Scan_mode = 0  (DITHERED)

[ L= 1 R= 1 ]
BEcenter= 93.000  
BEwidth= -9.955  
Excitation= 1486.600
Time_p_channel= 256.000 
Size= 278
97.977   6.03000000e+02 
97.941   6.11000000e+02 
97.905   5.84000000e+02 
97.870   5.68000000e+02 
97.834   5.92000000e+02 
97.798   6.20000000e+02 
97.762   5.99000000e+02 
97.726   6.38000000e+02 
97.690   6.19000000e+02 
97.654   5.87000000e+02 
97.618   5.98000000e+02 
97.582   6.39000000e+02 
97.546   6.54000000e+02 
97.510   6.32000000e+02 
97.474   6.56000000e+02 
97.438   6.79000000e+02 
97.402   6.99000000e+02 
97.366   6.76000000e+02 
97.330   7.32000000e+02 
97.295   7.33000000e+02 
97.259   7.08000000e+02 
97.223   7.14000000e+02 
97.187   7.45000000e+02 
97.151   8.48000000e+02 
97.115   8.69000000e+02 
97.079   8.00000000e+02 
97.043   8.47000000e+02 
97.007   9.28000000e+02 
96.971   9.36000000e+02 
96.935   1.01200000e+03 
96.899   9.61000000e+02 
96.863   1.04100000e+03 
96.827   1.08000000e+03 
96.791   1.01000000e+03 
96.755   1.14300000e+03 
96.720   1.17700000e+03 
96.684   1.16400000e+03 
96.648   1.20700000e+03 
96.612   1.19100000e+03 
96.576   1.33500000e+03 
96.540   1.35200000e+03 
96.504   1.39300000e+03 
96.468   1.40600000e+03 
96.432   1.42400000e+03 
96.396   1.49900000e+03 
96.360   1.48100000e+03 
96.324   1.58800000e+03 
96.288   1.63100000e+03 
96.252   1.57400000e+03 
96.216   1.69200000e+03 
96.180   1.75300000e+03 
96.145   1.69400000e+03 
96.109   1.74300000e+03 
96.073   1.82300000e+03 
96.037   1.76400000e+03 
96.001   1.84500000e+03 
95.965   1.90200000e+03 
95.929   1.85400000e+03 
95.893   1.95400000e+03 
95.857   1.92100000e+03 
95.821   2.06300000e+03 
95.785   1.95500000e+03 
95.749   2.05400000e+03 
95.713   2.09300000e+03 
95.677   2.00400000e+03 
95.641   2.08100000e+03 
95.605   2.21300000e+03 
95.570   2.16900000e+03 
95.534   2.13800000e+03 
95.498   2.11800000e+03 
95.462   2.13500000e+03 
95.426   2.22300000e+03 
95.390   2.17500000e+03 
95.354   2.30100000e+03 
95.318   2.24000000e+03 
95.282   2.27900000e+03 
95.246   2.28200000e+03 
95.210   2.29300000e+03 
95.174   2.24000000e+03 
95.138   2.26300000e+03 
95.102   2.28300000e+03 
95.066   2.25600000e+03 
95.030   2.27600000e+03 
94.995   2.20800000e+03 
94.959   2.22700000e+03 
94.923   2.17700000e+03 
94.887   2.19400000e+03 
94.851   2.22700000e+03 
94.815   2.11800000e+03 
94.779   2.02100000e+03 
94.743   2.10700000e+03 
94.707   2.03400000e+03 
94.671   2.06100000e+03 
94.635   2.00200000e+03 
94.599   1.93300000e+03 
94.563   1.82400000e+03 
94.527   1.77900000e+03 
94.491   1.74800000e+03 
94.455   1.66000000e+03 
94.420   1.61700000e+03 
94.384   1.54100000e+03 
94.348   1.47600000e+03 
94.312   1.32400000e+03 
94.276   1.31500000e+03 
94.240   1.20900000e+03 
94.204   1.11200000e+03 
94.168   1.09700000e+03 
94.132   1.02900000e+03 
94.096   9.46000000e+02 
94.060   9.10000000e+02 
94.024   9.32000000e+02 
93.988   8.31000000e+02 
93.952   8.06000000e+02 
93.916   7.70000000e+02 
93.880   7.96000000e+02 
93.845   7.38000000e+02 
93.809   8.03000000e+02 
93.773   7.68000000e+02 
93.737   7.92000000e+02 
93.701   8.11000000e+02 
93.665   7.96000000e+02 
93.629   8.36000000e+02 
93.593   7.68000000e+02 
93.557   8.29000000e+02 
93.521   8.75000000e+02 
93.485   8.57000000e+02 
93.449   8.76000000e+02 
93.413   9.30000000e+02 
93.377   9.61000000e+02 
93.341   9.64000000e+02 
93.305   9.81000000e+02 
93.270   1.03900000e+03 
93.234   1.03600000e+03 
93.198   1.14900000e+03 
93.162   1.13000000e+03 
93.126   1.14700000e+03 
93.090   1.21600000e+03 
93.054   1.22900000e+03 
93.018   1.33500000e+03 
92.982   1.32100000e+03 
92.946   1.40000000e+03 
92.910   1.49300000e+03 
92.874   1.52200000e+03 
92.838   1.56100000e+03 
92.802   1.51900000e+03 
92.766   1.66800000e+03 
92.730   1.70100000e+03 
92.695   1.76100000e+03 
92.659   1.74900000e+03 
92.623   1.75300000e+03 
92.587   1.93400000e+03 
92.551   1.88200000e+03 
92.515   1.94100000e+03 
92.479   2.07400000e+03 
92.443   2.05800000e+03 
92.407   2.08600000e+03 
92.371   2.05300000e+03 
92.335   2.19100000e+03 
92.299   2.18800000e+03 
92.263   2.17900000e+03 
92.227   2.25900000e+03 
92.191   2.31700000e+03 
92.155   2.40600000e+03 
92.120   2.30200000e+03 
92.084   2.35800000e+03 
92.048   2.37700000e+03 
92.012   2.37000000e+03 
91.976   2.38000000e+03 
91.940   2.43000000e+03 
91.904   2.53800000e+03 
91.868   2.56900000e+03 
91.832   2.52000000e+03 
91.796   2.58100000e+03 
91.760   2.44400000e+03 
91.724   2.58700000e+03 
91.688   2.67500000e+03 
91.652   2.57200000e+03 
91.616   2.69800000e+03 
91.580   2.61300000e+03 
91.545   2.71300000e+03 
91.509   2.61200000e+03 
91.473   2.68500000e+03 
91.437   2.53000000e+03 
91.401   2.57400000e+03 
91.365   2.62200000e+03 
91.329   2.58300000e+03 
91.293   2.53600000e+03 
91.257   2.56700000e+03 
91.221   2.52300000e+03 
91.185   2.50100000e+03 
91.149   2.36000000e+03 
91.113   2.41000000e+03 
91.077   2.35000000e+03 
91.041   2.28800000e+03 
91.005   2.23500000e+03 
90.970   2.18400000e+03 
90.934   2.13800000e+03 
90.898   2.06900000e+03 
90.862   1.99200000e+03 
90.826   1.86900000e+03 
90.790   1.71600000e+03 
90.754   1.65300000e+03 
90.718   1.52400000e+03 
90.682   1.42800000e+03 
90.646   1.32200000e+03 
90.610   1.25200000e+03 
90.574   1.14800000e+03 
90.538   9.86000000e+02 
90.502   9.64000000e+02 
90.466   8.50000000e+02 
90.430   7.81000000e+02 
90.395   7.07000000e+02 
90.359   6.37000000e+02 
90.323   5.85000000e+02 
90.287   5.27000000e+02 
90.251   5.07000000e+02 
90.215   4.86000000e+02 
90.179   4.62000000e+02 
90.143   3.81000000e+02 
90.107   4.00000000e+02 
90.071   3.83000000e+02 
90.035   3.94000000e+02 
89.999   3.54000000e+02 
89.963   3.58000000e+02 
89.927   3.25000000e+02 
89.891   3.16000000e+02 
89.855   3.18000000e+02 
89.820   3.07000000e+02 
89.784   3.33000000e+02 
89.748   3.02000000e+02 
89.712   2.99000000e+02 
89.676   2.95000000e+02 
89.640   2.79000000e+02 
89.604   2.75000000e+02 
89.568   2.56000000e+02 
89.532   2.77000000e+02 
89.496   2.78000000e+02 
89.460   2.51000000e+02 
89.424   2.51000000e+02 
89.388   2.71000000e+02 
89.352   2.60000000e+02 
89.316   2.47000000e+02 
89.280   2.52000000e+02 
89.245   2.08000000e+02 
89.209   2.46000000e+02 
89.173   2.56000000e+02 
89.137   2.32000000e+02 
89.101   2.57000000e+02 
89.065   2.26000000e+02 
89.029   2.20000000e+02 
88.993   2.23000000e+02 
88.957   2.25000000e+02 
88.921   2.43000000e+02 
88.885   2.48000000e+02 
88.849   2.22000000e+02 
88.813   2.41000000e+02 
88.777   2.25000000e+02 
88.741   2.30000000e+02 
88.705   2.30000000e+02 
88.670   2.20000000e+02 
88.634   2.41000000e+02 
88.598   2.31000000e+02 
88.562   2.09000000e+02 
88.526   2.06000000e+02 
88.490   2.63000000e+02 
88.454   2.12000000e+02 
88.418   1.84000000e+02 
88.382   2.25000000e+02 
88.346   2.36000000e+02 
88.310   2.13000000e+02 
88.274   1.99000000e+02 
88.238   2.20000000e+02 
88.202   2.06000000e+02 
88.166   2.07000000e+02 
88.130   2.26000000e+02 
88.095   2.15000000e+02 
88.059   1.89000000e+02 
88.023   2.09000000e+02 

