EXPERIMENT FILE
Version = 2

[ Experiment Parameters ]
Experiment Description= <none> 
Number_of_Regions_in_Experiment= 1 

Original_File_name= C:\alexesca\data\10242012_Au _4f_56nuetral-6_Mono195.xps 
Instrument= HP ESCA West
Date= 10-24-2012
Time=  13:56:08

[ Layer Parameters ]
Layer_Type= XPS

[ Region 1 Parameters ]
Region_Description = Au 4f Dithered Scan                
BEcenter(eV) = 93.000000
BEwidth(eV) = 10.000000
BEstep(eV) = 0.035937
Dwell_Time(sec) = 1.000000
N_o_scans = 1  
N_o_Channels = 278  
Scan_mode = 0  (DITHERED)

[ L= 1 R= 1 ]
BEcenter= 93.000  
BEwidth= -9.955  
Excitation= 1486.600
Time_p_channel= 256.000 
Size= 278
97.977   2.40000000e+02 
97.941   2.49000000e+02 
97.905   2.71000000e+02 
97.870   2.44000000e+02 
97.834   2.48000000e+02 
97.798   2.58000000e+02 
97.762   2.77000000e+02 
97.726   2.56000000e+02 
97.690   2.41000000e+02 
97.654   2.57000000e+02 
97.618   2.77000000e+02 
97.582   2.76000000e+02 
97.546   2.77000000e+02 
97.510   2.72000000e+02 
97.474   2.48000000e+02 
97.438   2.74000000e+02 
97.402   2.65000000e+02 
97.366   2.41000000e+02 
97.330   2.45000000e+02 
97.295   2.61000000e+02 
97.259   2.53000000e+02 
97.223   2.58000000e+02 
97.187   2.59000000e+02 
97.151   2.57000000e+02 
97.115   3.03000000e+02 
97.079   3.28000000e+02 
97.043   2.41000000e+02 
97.007   3.06000000e+02 
96.971   2.91000000e+02 
96.935   2.92000000e+02 
96.899   2.86000000e+02 
96.863   3.05000000e+02 
96.827   2.98000000e+02 
96.791   3.18000000e+02 
96.755   2.95000000e+02 
96.720   3.29000000e+02 
96.684   3.16000000e+02 
96.648   3.35000000e+02 
96.612   3.43000000e+02 
96.576   3.35000000e+02 
96.540   3.20000000e+02 
96.504   3.82000000e+02 
96.468   3.33000000e+02 
96.432   3.75000000e+02 
96.396   3.49000000e+02 
96.360   3.68000000e+02 
96.324   3.68000000e+02 
96.288   4.13000000e+02 
96.252   4.01000000e+02 
96.216   4.15000000e+02 
96.180   4.64000000e+02 
96.145   4.25000000e+02 
96.109   4.55000000e+02 
96.073   4.56000000e+02 
96.037   4.92000000e+02 
96.001   4.82000000e+02 
95.965   5.57000000e+02 
95.929   5.44000000e+02 
95.893   5.83000000e+02 
95.857   6.18000000e+02 
95.821   6.52000000e+02 
95.785   6.52000000e+02 
95.749   6.71000000e+02 
95.713   7.09000000e+02 
95.677   7.69000000e+02 
95.641   7.33000000e+02 
95.605   7.58000000e+02 
95.570   8.49000000e+02 
95.534   8.54000000e+02 
95.498   9.10000000e+02 
95.462   8.98000000e+02 
95.426   9.44000000e+02 
95.390   9.79000000e+02 
95.354   1.03400000e+03 
95.318   1.10500000e+03 
95.282   1.18700000e+03 
95.246   1.15500000e+03 
95.210   1.28000000e+03 
95.174   1.28600000e+03 
95.138   1.32800000e+03 
95.102   1.34500000e+03 
95.066   1.46000000e+03 
95.030   1.45700000e+03 
94.995   1.47700000e+03 
94.959   1.42800000e+03 
94.923   1.52700000e+03 
94.887   1.46300000e+03 
94.851   1.47400000e+03 
94.815   1.46700000e+03 
94.779   1.41600000e+03 
94.743   1.45800000e+03 
94.707   1.37900000e+03 
94.671   1.36900000e+03 
94.635   1.21900000e+03 
94.599   1.18200000e+03 
94.563   1.04600000e+03 
94.527   1.07600000e+03 
94.491   9.68000000e+02 
94.455   8.94000000e+02 
94.420   8.22000000e+02 
94.384   7.70000000e+02 
94.348   7.24000000e+02 
94.312   6.42000000e+02 
94.276   5.55000000e+02 
94.240   5.46000000e+02 
94.204   4.76000000e+02 
94.168   4.36000000e+02 
94.132   3.99000000e+02 
94.096   3.89000000e+02 
94.060   3.78000000e+02 
94.024   3.30000000e+02 
93.988   3.50000000e+02 
93.952   3.41000000e+02 
93.916   2.99000000e+02 
93.880   3.28000000e+02 
93.845   2.92000000e+02 
93.809   3.01000000e+02 
93.773   3.13000000e+02 
93.737   2.52000000e+02 
93.701   2.97000000e+02 
93.665   2.81000000e+02 
93.629   2.76000000e+02 
93.593   2.83000000e+02 
93.557   2.73000000e+02 
93.521   2.86000000e+02 
93.485   2.71000000e+02 
93.449   2.64000000e+02 
93.413   2.60000000e+02 
93.377   2.95000000e+02 
93.341   2.57000000e+02 
93.305   2.79000000e+02 
93.270   2.71000000e+02 
93.234   3.01000000e+02 
93.198   2.76000000e+02 
93.162   2.84000000e+02 
93.126   3.04000000e+02 
93.090   3.01000000e+02 
93.054   2.84000000e+02 
93.018   2.93000000e+02 
92.982   2.92000000e+02 
92.946   3.21000000e+02 
92.910   3.21000000e+02 
92.874   3.38000000e+02 
92.838   3.35000000e+02 
92.802   3.62000000e+02 
92.766   3.59000000e+02 
92.730   3.95000000e+02 
92.695   4.06000000e+02 
92.659   3.87000000e+02 
92.623   4.13000000e+02 
92.587   4.05000000e+02 
92.551   3.98000000e+02 
92.515   4.49000000e+02 
92.479   4.99000000e+02 
92.443   4.62000000e+02 
92.407   4.80000000e+02 
92.371   4.95000000e+02 
92.335   5.56000000e+02 
92.299   5.70000000e+02 
92.263   6.18000000e+02 
92.227   5.59000000e+02 
92.191   6.10000000e+02 
92.155   6.58000000e+02 
92.120   7.19000000e+02 
92.084   7.03000000e+02 
92.048   7.16000000e+02 
92.012   8.08000000e+02 
91.976   8.57000000e+02 
91.940   8.35000000e+02 
91.904   8.80000000e+02 
91.868   9.95000000e+02 
91.832   1.00300000e+03 
91.796   1.01700000e+03 
91.760   1.14600000e+03 
91.724   1.13700000e+03 
91.688   1.20300000e+03 
91.652   1.24600000e+03 
91.616   1.31300000e+03 
91.580   1.42500000e+03 
91.545   1.41100000e+03 
91.509   1.51800000e+03 
91.473   1.57400000e+03 
91.437   1.54800000e+03 
91.401   1.63200000e+03 
91.365   1.73600000e+03 
91.329   1.75000000e+03 
91.293   1.79100000e+03 
91.257   1.83400000e+03 
91.221   1.80600000e+03 
91.185   1.87000000e+03 
91.149   1.76500000e+03 
91.113   1.85000000e+03 
91.077   1.72700000e+03 
91.041   1.61800000e+03 
91.005   1.61800000e+03 
90.970   1.49900000e+03 
90.934   1.50200000e+03 
90.898   1.35600000e+03 
90.862   1.13600000e+03 
90.826   1.12900000e+03 
90.790   1.03400000e+03 
90.754   9.31000000e+02 
90.718   8.46000000e+02 
90.682   6.89000000e+02 
90.646   6.47000000e+02 
90.610   6.14000000e+02 
90.574   5.39000000e+02 
90.538   4.66000000e+02 
90.502   4.33000000e+02 
90.466   3.75000000e+02 
90.430   3.41000000e+02 
90.395   3.13000000e+02 
90.359   2.79000000e+02 
90.323   2.79000000e+02 
90.287   2.60000000e+02 
90.251   2.29000000e+02 
90.215   2.36000000e+02 
90.179   2.12000000e+02 
90.143   2.12000000e+02 
90.107   1.90000000e+02 
90.071   1.98000000e+02 
90.035   2.08000000e+02 
89.999   1.95000000e+02 
89.963   1.84000000e+02 
89.927   1.74000000e+02 
89.891   1.62000000e+02 
89.855   1.74000000e+02 
89.820   1.70000000e+02 
89.784   1.66000000e+02 
89.748   1.67000000e+02 
89.712   1.53000000e+02 
89.676   1.43000000e+02 
89.640   1.61000000e+02 
89.604   1.38000000e+02 
89.568   1.47000000e+02 
89.532   1.30000000e+02 
89.496   1.39000000e+02 
89.460   1.49000000e+02 
89.424   1.49000000e+02 
89.388   1.37000000e+02 
89.352   1.36000000e+02 
89.316   1.38000000e+02 
89.280   1.28000000e+02 
89.245   1.27000000e+02 
89.209   1.61000000e+02 
89.173   1.32000000e+02 
89.137   1.10000000e+02 
89.101   1.28000000e+02 
89.065   1.30000000e+02 
89.029   1.14000000e+02 
88.993   1.12000000e+02 
88.957   1.24000000e+02 
88.921   1.23000000e+02 
88.885   1.13000000e+02 
88.849   1.25000000e+02 
88.813   1.03000000e+02 
88.777   1.29000000e+02 
88.741   1.07000000e+02 
88.705   1.08000000e+02 
88.670   1.19000000e+02 
88.634   1.00000000e+02 
88.598   1.22000000e+02 
88.562   1.19000000e+02 
88.526   1.19000000e+02 
88.490   1.14000000e+02 
88.454   1.07000000e+02 
88.418   1.09000000e+02 
88.382   1.13000000e+02 
88.346   8.90000000e+01 
88.310   1.31000000e+02 
88.274   9.50000000e+01 
88.238   1.02000000e+02 
88.202   1.03000000e+02 
88.166   1.01000000e+02 
88.130   8.80000000e+01 
88.095   1.08000000e+02 
88.059   1.07000000e+02 
88.023   1.15000000e+02 

