EXPERIMENT FILE
Version = 2

[ Experiment Parameters ]
Experiment Description= <none> 
Number_of_Regions_in_Experiment= 1 

Original_File_name= C:\alexesca\data\10252012_Au _4f_56nuetral+14_Mono222.xps 
Instrument= HP ESCA West
Date= 10-25-2012
Time=  17:21:31

[ Layer Parameters ]
Layer_Type= XPS

[ Region 1 Parameters ]
Region_Description = Au 4f Dithered Scan                
BEcenter(eV) = 93.000000
BEwidth(eV) = 10.000000
BEstep(eV) = 0.035937
Dwell_Time(sec) = 1.000000
N_o_scans = 1  
N_o_Channels = 278  
Scan_mode = 0  (DITHERED)

[ L= 1 R= 1 ]
BEcenter= 93.000  
BEwidth= -9.955  
Excitation= 1486.600
Time_p_channel= 256.000 
Size= 278
97.977   5.04000000e+02 
97.941   5.21000000e+02 
97.905   4.93000000e+02 
97.870   5.06000000e+02 
97.834   4.76000000e+02 
97.798   5.00000000e+02 
97.762   4.55000000e+02 
97.726   4.95000000e+02 
97.690   5.22000000e+02 
97.654   5.02000000e+02 
97.618   4.96000000e+02 
97.582   4.89000000e+02 
97.546   5.62000000e+02 
97.510   5.15000000e+02 
97.474   5.44000000e+02 
97.438   5.69000000e+02 
97.402   5.42000000e+02 
97.366   5.80000000e+02 
97.330   5.62000000e+02 
97.295   6.03000000e+02 
97.259   5.78000000e+02 
97.223   5.65000000e+02 
97.187   5.93000000e+02 
97.151   6.29000000e+02 
97.115   6.54000000e+02 
97.079   6.00000000e+02 
97.043   6.65000000e+02 
97.007   6.86000000e+02 
96.971   6.89000000e+02 
96.935   7.46000000e+02 
96.899   7.15000000e+02 
96.863   7.36000000e+02 
96.827   7.72000000e+02 
96.791   8.31000000e+02 
96.755   7.83000000e+02 
96.720   8.51000000e+02 
96.684   8.78000000e+02 
96.648   9.25000000e+02 
96.612   9.45000000e+02 
96.576   9.93000000e+02 
96.540   1.00100000e+03 
96.504   1.08500000e+03 
96.468   1.07300000e+03 
96.432   1.08700000e+03 
96.396   1.08500000e+03 
96.360   1.14600000e+03 
96.324   1.21500000e+03 
96.288   1.28000000e+03 
96.252   1.32700000e+03 
96.216   1.30900000e+03 
96.180   1.36800000e+03 
96.145   1.36900000e+03 
96.109   1.44300000e+03 
96.073   1.43800000e+03 
96.037   1.51800000e+03 
96.001   1.64200000e+03 
95.965   1.62700000e+03 
95.929   1.62700000e+03 
95.893   1.73200000e+03 
95.857   1.69700000e+03 
95.821   1.80700000e+03 
95.785   1.93100000e+03 
95.749   1.74800000e+03 
95.713   1.95800000e+03 
95.677   1.97600000e+03 
95.641   2.05300000e+03 
95.605   2.06000000e+03 
95.570   2.07700000e+03 
95.534   2.13600000e+03 
95.498   2.11600000e+03 
95.462   2.20200000e+03 
95.426   2.25000000e+03 
95.390   2.15000000e+03 
95.354   2.28000000e+03 
95.318   2.14000000e+03 
95.282   2.20000000e+03 
95.246   2.20300000e+03 
95.210   2.26000000e+03 
95.174   2.14700000e+03 
95.138   2.16200000e+03 
95.102   2.17200000e+03 
95.066   2.17800000e+03 
95.030   2.11800000e+03 
94.995   2.12500000e+03 
94.959   2.07200000e+03 
94.923   2.06100000e+03 
94.887   2.08400000e+03 
94.851   2.00100000e+03 
94.815   1.88000000e+03 
94.779   1.87700000e+03 
94.743   1.84700000e+03 
94.707   1.78500000e+03 
94.671   1.63900000e+03 
94.635   1.57000000e+03 
94.599   1.58600000e+03 
94.563   1.41300000e+03 
94.527   1.36800000e+03 
94.491   1.33200000e+03 
94.455   1.21700000e+03 
94.420   1.11000000e+03 
94.384   1.08100000e+03 
94.348   1.02200000e+03 
94.312   9.31000000e+02 
94.276   8.61000000e+02 
94.240   8.38000000e+02 
94.204   8.30000000e+02 
94.168   7.98000000e+02 
94.132   7.32000000e+02 
94.096   6.92000000e+02 
94.060   6.37000000e+02 
94.024   6.50000000e+02 
93.988   6.93000000e+02 
93.952   6.04000000e+02 
93.916   5.98000000e+02 
93.880   6.26000000e+02 
93.845   5.94000000e+02 
93.809   5.62000000e+02 
93.773   5.95000000e+02 
93.737   5.99000000e+02 
93.701   5.69000000e+02 
93.665   6.10000000e+02 
93.629   6.21000000e+02 
93.593   5.86000000e+02 
93.557   5.86000000e+02 
93.521   6.22000000e+02 
93.485   6.65000000e+02 
93.449   6.38000000e+02 
93.413   7.15000000e+02 
93.377   6.53000000e+02 
93.341   6.92000000e+02 
93.305   7.75000000e+02 
93.270   7.27000000e+02 
93.234   7.77000000e+02 
93.198   7.69000000e+02 
93.162   7.82000000e+02 
93.126   8.28000000e+02 
93.090   8.39000000e+02 
93.054   9.69000000e+02 
93.018   9.24000000e+02 
92.982   9.85000000e+02 
92.946   1.05700000e+03 
92.910   1.02300000e+03 
92.874   1.10000000e+03 
92.838   1.13500000e+03 
92.802   1.18300000e+03 
92.766   1.21000000e+03 
92.730   1.25700000e+03 
92.695   1.31200000e+03 
92.659   1.37000000e+03 
92.623   1.38500000e+03 
92.587   1.45400000e+03 
92.551   1.52300000e+03 
92.515   1.56900000e+03 
92.479   1.62800000e+03 
92.443   1.66300000e+03 
92.407   1.73800000e+03 
92.371   1.76100000e+03 
92.335   1.90200000e+03 
92.299   1.94800000e+03 
92.263   1.86500000e+03 
92.227   1.92900000e+03 
92.191   2.00100000e+03 
92.155   2.15700000e+03 
92.120   2.17600000e+03 
92.084   2.18600000e+03 
92.048   2.22100000e+03 
92.012   2.29700000e+03 
91.976   2.34100000e+03 
91.940   2.40900000e+03 
91.904   2.46200000e+03 
91.868   2.47500000e+03 
91.832   2.50500000e+03 
91.796   2.62100000e+03 
91.760   2.57000000e+03 
91.724   2.64400000e+03 
91.688   2.64200000e+03 
91.652   2.63300000e+03 
91.616   2.60400000e+03 
91.580   2.60800000e+03 
91.545   2.66000000e+03 
91.509   2.60500000e+03 
91.473   2.68300000e+03 
91.437   2.68400000e+03 
91.401   2.59600000e+03 
91.365   2.59800000e+03 
91.329   2.48300000e+03 
91.293   2.48600000e+03 
91.257   2.41100000e+03 
91.221   2.39900000e+03 
91.185   2.29200000e+03 
91.149   2.28100000e+03 
91.113   2.10000000e+03 
91.077   2.11800000e+03 
91.041   1.97200000e+03 
91.005   1.84200000e+03 
90.970   1.78100000e+03 
90.934   1.66600000e+03 
90.898   1.54700000e+03 
90.862   1.43700000e+03 
90.826   1.32300000e+03 
90.790   1.31300000e+03 
90.754   1.13500000e+03 
90.718   1.11300000e+03 
90.682   9.70000000e+02 
90.646   8.93000000e+02 
90.610   8.45000000e+02 
90.574   7.01000000e+02 
90.538   7.45000000e+02 
90.502   6.26000000e+02 
90.466   5.84000000e+02 
90.430   5.48000000e+02 
90.395   4.77000000e+02 
90.359   4.79000000e+02 
90.323   4.78000000e+02 
90.287   4.18000000e+02 
90.251   4.08000000e+02 
90.215   3.83000000e+02 
90.179   3.52000000e+02 
90.143   3.25000000e+02 
90.107   2.96000000e+02 
90.071   2.85000000e+02 
90.035   2.86000000e+02 
89.999   2.89000000e+02 
89.963   3.10000000e+02 
89.927   3.11000000e+02 
89.891   2.71000000e+02 
89.855   2.47000000e+02 
89.820   2.69000000e+02 
89.784   2.90000000e+02 
89.748   2.62000000e+02 
89.712   2.40000000e+02 
89.676   2.70000000e+02 
89.640   2.33000000e+02 
89.604   2.17000000e+02 
89.568   2.55000000e+02 
89.532   2.27000000e+02 
89.496   2.25000000e+02 
89.460   2.17000000e+02 
89.424   2.28000000e+02 
89.388   2.55000000e+02 
89.352   2.09000000e+02 
89.316   2.11000000e+02 
89.280   2.40000000e+02 
89.245   2.51000000e+02 
89.209   2.25000000e+02 
89.173   2.15000000e+02 
89.137   2.05000000e+02 
89.101   2.10000000e+02 
89.065   2.56000000e+02 
89.029   1.83000000e+02 
88.993   2.20000000e+02 
88.957   2.20000000e+02 
88.921   2.05000000e+02 
88.885   2.12000000e+02 
88.849   2.14000000e+02 
88.813   1.97000000e+02 
88.777   1.96000000e+02 
88.741   2.11000000e+02 
88.705   1.59000000e+02 
88.670   1.87000000e+02 
88.634   2.00000000e+02 
88.598   1.99000000e+02 
88.562   1.82000000e+02 
88.526   2.15000000e+02 
88.490   1.89000000e+02 
88.454   1.65000000e+02 
88.418   1.91000000e+02 
88.382   1.72000000e+02 
88.346   1.76000000e+02 
88.310   1.84000000e+02 
88.274   1.83000000e+02 
88.238   1.81000000e+02 
88.202   1.75000000e+02 
88.166   1.86000000e+02 
88.130   1.98000000e+02 
88.095   1.69000000e+02 
88.059   1.82000000e+02 
88.023   1.85000000e+02 

