EXPERIMENT FILE
Version = 2

[ Experiment Parameters ]
Experiment Description= <none> 
Number_of_Regions_in_Experiment= 1 

Original_File_name= C:\alexesca\data\10252012_Au _4f_56nuetral+14_Mono219.xps 
Instrument= HP ESCA West
Date= 10-26-2012
Time=  13:58:43

[ Layer Parameters ]
Layer_Type= XPS

[ Region 1 Parameters ]
Region_Description = Au 4f Dithered Scan                
BEcenter(eV) = 93.000000
BEwidth(eV) = 10.000000
BEstep(eV) = 0.035937
Dwell_Time(sec) = 1.000000
N_o_scans = 1  
N_o_Channels = 278  
Scan_mode = 0  (DITHERED)

[ L= 1 R= 1 ]
BEcenter= 93.000  
BEwidth= -9.955  
Excitation= 1486.600
Time_p_channel= 256.000 
Size= 278
97.977   5.26000000e+02 
97.941   5.48000000e+02 
97.905   5.33000000e+02 
97.870   5.53000000e+02 
97.834   5.62000000e+02 
97.798   5.74000000e+02 
97.762   5.93000000e+02 
97.726   5.43000000e+02 
97.690   5.46000000e+02 
97.654   5.31000000e+02 
97.618   5.70000000e+02 
97.582   6.06000000e+02 
97.546   5.95000000e+02 
97.510   5.99000000e+02 
97.474   6.14000000e+02 
97.438   5.97000000e+02 
97.402   6.45000000e+02 
97.366   6.37000000e+02 
97.330   6.50000000e+02 
97.295   6.86000000e+02 
97.259   6.51000000e+02 
97.223   6.61000000e+02 
97.187   6.74000000e+02 
97.151   6.73000000e+02 
97.115   7.04000000e+02 
97.079   7.03000000e+02 
97.043   7.61000000e+02 
97.007   7.29000000e+02 
96.971   6.81000000e+02 
96.935   8.04000000e+02 
96.899   8.33000000e+02 
96.863   8.32000000e+02 
96.827   8.28000000e+02 
96.791   8.67000000e+02 
96.755   8.89000000e+02 
96.720   9.02000000e+02 
96.684   9.38000000e+02 
96.648   9.61000000e+02 
96.612   1.07100000e+03 
96.576   1.11300000e+03 
96.540   1.08700000e+03 
96.504   1.08600000e+03 
96.468   1.19700000e+03 
96.432   1.15400000e+03 
96.396   1.26600000e+03 
96.360   1.26100000e+03 
96.324   1.30600000e+03 
96.288   1.32200000e+03 
96.252   1.31100000e+03 
96.216   1.49900000e+03 
96.180   1.39700000e+03 
96.145   1.46000000e+03 
96.109   1.52400000e+03 
96.073   1.51200000e+03 
96.037   1.60000000e+03 
96.001   1.75000000e+03 
95.965   1.78000000e+03 
95.929   1.80100000e+03 
95.893   1.83500000e+03 
95.857   1.78800000e+03 
95.821   1.86000000e+03 
95.785   1.92100000e+03 
95.749   1.96800000e+03 
95.713   2.00400000e+03 
95.677   2.11800000e+03 
95.641   2.08800000e+03 
95.605   2.15500000e+03 
95.570   2.15700000e+03 
95.534   2.28500000e+03 
95.498   2.25800000e+03 
95.462   2.25800000e+03 
95.426   2.32700000e+03 
95.390   2.29800000e+03 
95.354   2.39700000e+03 
95.318   2.44900000e+03 
95.282   2.36400000e+03 
95.246   2.42300000e+03 
95.210   2.45500000e+03 
95.174   2.56400000e+03 
95.138   2.46200000e+03 
95.102   2.38800000e+03 
95.066   2.46200000e+03 
95.030   2.41000000e+03 
94.995   2.38100000e+03 
94.959   2.32700000e+03 
94.923   2.40200000e+03 
94.887   2.36000000e+03 
94.851   2.24900000e+03 
94.815   2.24900000e+03 
94.779   2.15800000e+03 
94.743   2.12000000e+03 
94.707   2.06800000e+03 
94.671   1.95600000e+03 
94.635   1.87100000e+03 
94.599   1.80400000e+03 
94.563   1.73600000e+03 
94.527   1.59500000e+03 
94.491   1.54800000e+03 
94.455   1.43000000e+03 
94.420   1.32800000e+03 
94.384   1.28000000e+03 
94.348   1.14700000e+03 
94.312   1.10800000e+03 
94.276   1.06100000e+03 
94.240   1.02200000e+03 
94.204   9.18000000e+02 
94.168   8.95000000e+02 
94.132   8.11000000e+02 
94.096   7.55000000e+02 
94.060   7.60000000e+02 
94.024   7.50000000e+02 
93.988   7.60000000e+02 
93.952   6.94000000e+02 
93.916   6.75000000e+02 
93.880   7.24000000e+02 
93.845   6.48000000e+02 
93.809   6.78000000e+02 
93.773   6.23000000e+02 
93.737   6.73000000e+02 
93.701   7.04000000e+02 
93.665   6.76000000e+02 
93.629   6.65000000e+02 
93.593   6.89000000e+02 
93.557   6.89000000e+02 
93.521   6.90000000e+02 
93.485   6.94000000e+02 
93.449   6.96000000e+02 
93.413   7.15000000e+02 
93.377   7.84000000e+02 
93.341   7.53000000e+02 
93.305   7.49000000e+02 
93.270   8.01000000e+02 
93.234   8.30000000e+02 
93.198   8.65000000e+02 
93.162   9.00000000e+02 
93.126   8.91000000e+02 
93.090   9.59000000e+02 
93.054   1.00900000e+03 
93.018   1.02500000e+03 
92.982   1.01100000e+03 
92.946   1.11900000e+03 
92.910   1.20500000e+03 
92.874   1.14500000e+03 
92.838   1.16700000e+03 
92.802   1.29300000e+03 
92.766   1.28400000e+03 
92.730   1.26600000e+03 
92.695   1.37800000e+03 
92.659   1.41200000e+03 
92.623   1.50000000e+03 
92.587   1.52200000e+03 
92.551   1.58500000e+03 
92.515   1.66600000e+03 
92.479   1.62600000e+03 
92.443   1.69400000e+03 
92.407   1.75100000e+03 
92.371   1.82100000e+03 
92.335   1.92600000e+03 
92.299   1.97300000e+03 
92.263   2.07000000e+03 
92.227   2.06100000e+03 
92.191   2.06400000e+03 
92.155   2.17100000e+03 
92.120   2.24900000e+03 
92.084   2.33500000e+03 
92.048   2.37400000e+03 
92.012   2.39100000e+03 
91.976   2.47300000e+03 
91.940   2.51200000e+03 
91.904   2.69600000e+03 
91.868   2.52500000e+03 
91.832   2.72200000e+03 
91.796   2.79900000e+03 
91.760   2.73400000e+03 
91.724   2.79600000e+03 
91.688   2.75800000e+03 
91.652   2.88000000e+03 
91.616   2.86900000e+03 
91.580   2.91400000e+03 
91.545   2.96900000e+03 
91.509   2.95800000e+03 
91.473   2.93700000e+03 
91.437   2.83300000e+03 
91.401   2.83100000e+03 
91.365   2.86800000e+03 
91.329   2.82700000e+03 
91.293   2.77100000e+03 
91.257   2.75800000e+03 
91.221   2.68400000e+03 
91.185   2.72900000e+03 
91.149   2.61300000e+03 
91.113   2.50600000e+03 
91.077   2.43500000e+03 
91.041   2.33500000e+03 
91.005   2.21200000e+03 
90.970   2.15000000e+03 
90.934   1.93000000e+03 
90.898   1.89600000e+03 
90.862   1.69400000e+03 
90.826   1.63500000e+03 
90.790   1.51100000e+03 
90.754   1.39000000e+03 
90.718   1.26600000e+03 
90.682   1.23200000e+03 
90.646   1.09600000e+03 
90.610   9.69000000e+02 
90.574   8.47000000e+02 
90.538   8.73000000e+02 
90.502   7.52000000e+02 
90.466   6.71000000e+02 
90.430   6.46000000e+02 
90.395   5.77000000e+02 
90.359   5.03000000e+02 
90.323   5.06000000e+02 
90.287   4.94000000e+02 
90.251   4.27000000e+02 
90.215   4.05000000e+02 
90.179   4.37000000e+02 
90.143   3.80000000e+02 
90.107   3.88000000e+02 
90.071   3.70000000e+02 
90.035   3.63000000e+02 
89.999   3.45000000e+02 
89.963   3.66000000e+02 
89.927   3.27000000e+02 
89.891   3.19000000e+02 
89.855   3.36000000e+02 
89.820   3.07000000e+02 
89.784   2.91000000e+02 
89.748   2.74000000e+02 
89.712   2.89000000e+02 
89.676   2.78000000e+02 
89.640   2.75000000e+02 
89.604   2.69000000e+02 
89.568   2.67000000e+02 
89.532   2.51000000e+02 
89.496   2.62000000e+02 
89.460   2.72000000e+02 
89.424   2.40000000e+02 
89.388   2.33000000e+02 
89.352   2.24000000e+02 
89.316   2.72000000e+02 
89.280   2.17000000e+02 
89.245   2.13000000e+02 
89.209   2.17000000e+02 
89.173   2.41000000e+02 
89.137   2.34000000e+02 
89.101   2.20000000e+02 
89.065   2.16000000e+02 
89.029   2.52000000e+02 
88.993   2.25000000e+02 
88.957   2.05000000e+02 
88.921   2.13000000e+02 
88.885   2.14000000e+02 
88.849   2.39000000e+02 
88.813   2.20000000e+02 
88.777   1.99000000e+02 
88.741   1.93000000e+02 
88.705   2.17000000e+02 
88.670   2.16000000e+02 
88.634   2.11000000e+02 
88.598   1.89000000e+02 
88.562   2.08000000e+02 
88.526   1.98000000e+02 
88.490   1.89000000e+02 
88.454   2.23000000e+02 
88.418   1.80000000e+02 
88.382   2.01000000e+02 
88.346   2.11000000e+02 
88.310   1.94000000e+02 
88.274   2.19000000e+02 
88.238   2.06000000e+02 
88.202   2.12000000e+02 
88.166   2.00000000e+02 
88.130   2.28000000e+02 
88.095   1.89000000e+02 
88.059   1.96000000e+02 
88.023   1.78000000e+02 

