EXPERIMENT FILE
Version = 2

[ Experiment Parameters ]
Experiment Description= <none> 
Number_of_Regions_in_Experiment= 1 

Original_File_name= C:\alexesca\data\10252012_Au _4f_56nuetral+39_Mono225.xps 
Instrument= HP ESCA West
Date= 10-25-2012
Time=  17:54:52

[ Layer Parameters ]
Layer_Type= XPS

[ Region 1 Parameters ]
Region_Description = Au 4f Dithered Scan                
BEcenter(eV) = 93.000000
BEwidth(eV) = 10.000000
BEstep(eV) = 0.035937
Dwell_Time(sec) = 1.000000
N_o_scans = 1  
N_o_Channels = 278  
Scan_mode = 0  (DITHERED)

[ L= 1 R= 1 ]
BEcenter= 93.000  
BEwidth= -9.955  
Excitation= 1486.600
Time_p_channel= 256.000 
Size= 278
97.977   5.85000000e+02 
97.941   5.98000000e+02 
97.905   6.09000000e+02 
97.870   6.12000000e+02 
97.834   5.83000000e+02 
97.798   5.94000000e+02 
97.762   5.98000000e+02 
97.726   6.35000000e+02 
97.690   6.63000000e+02 
97.654   6.22000000e+02 
97.618   6.55000000e+02 
97.582   6.76000000e+02 
97.546   6.46000000e+02 
97.510   6.29000000e+02 
97.474   6.73000000e+02 
97.438   7.31000000e+02 
97.402   7.29000000e+02 
97.366   7.21000000e+02 
97.330   7.29000000e+02 
97.295   7.36000000e+02 
97.259   7.83000000e+02 
97.223   8.45000000e+02 
97.187   8.34000000e+02 
97.151   8.38000000e+02 
97.115   8.72000000e+02 
97.079   9.07000000e+02 
97.043   9.58000000e+02 
97.007   9.69000000e+02 
96.971   1.01300000e+03 
96.935   1.00100000e+03 
96.899   1.11500000e+03 
96.863   1.08900000e+03 
96.827   1.10100000e+03 
96.791   1.17800000e+03 
96.755   1.17100000e+03 
96.720   1.22500000e+03 
96.684   1.35300000e+03 
96.648   1.31900000e+03 
96.612   1.36200000e+03 
96.576   1.51100000e+03 
96.540   1.51100000e+03 
96.504   1.59100000e+03 
96.468   1.52800000e+03 
96.432   1.61900000e+03 
96.396   1.66500000e+03 
96.360   1.67000000e+03 
96.324   1.83300000e+03 
96.288   1.81400000e+03 
96.252   1.89200000e+03 
96.216   1.87600000e+03 
96.180   2.03700000e+03 
96.145   1.98200000e+03 
96.109   2.00200000e+03 
96.073   2.05000000e+03 
96.037   2.06500000e+03 
96.001   2.04200000e+03 
95.965   2.14900000e+03 
95.929   2.16300000e+03 
95.893   2.07400000e+03 
95.857   2.12700000e+03 
95.821   2.25200000e+03 
95.785   2.23900000e+03 
95.749   2.18000000e+03 
95.713   2.29900000e+03 
95.677   2.19400000e+03 
95.641   2.23900000e+03 
95.605   2.26800000e+03 
95.570   2.26200000e+03 
95.534   2.21900000e+03 
95.498   2.28800000e+03 
95.462   2.18300000e+03 
95.426   2.27300000e+03 
95.390   2.27600000e+03 
95.354   2.19200000e+03 
95.318   2.13200000e+03 
95.282   2.14900000e+03 
95.246   2.21200000e+03 
95.210   2.20600000e+03 
95.174   2.20200000e+03 
95.138   2.18800000e+03 
95.102   2.21300000e+03 
95.066   2.15000000e+03 
95.030   2.10600000e+03 
94.995   2.14500000e+03 
94.959   2.09700000e+03 
94.923   2.08400000e+03 
94.887   2.05000000e+03 
94.851   2.07600000e+03 
94.815   2.05200000e+03 
94.779   2.04900000e+03 
94.743   1.89900000e+03 
94.707   1.89200000e+03 
94.671   1.88900000e+03 
94.635   1.77300000e+03 
94.599   1.82100000e+03 
94.563   1.79600000e+03 
94.527   1.72000000e+03 
94.491   1.68100000e+03 
94.455   1.58200000e+03 
94.420   1.65000000e+03 
94.384   1.48700000e+03 
94.348   1.45200000e+03 
94.312   1.34300000e+03 
94.276   1.32200000e+03 
94.240   1.31000000e+03 
94.204   1.21500000e+03 
94.168   1.12400000e+03 
94.132   1.08900000e+03 
94.096   1.06000000e+03 
94.060   1.03000000e+03 
94.024   9.81000000e+02 
93.988   9.04000000e+02 
93.952   8.54000000e+02 
93.916   8.78000000e+02 
93.880   7.78000000e+02 
93.845   7.91000000e+02 
93.809   7.62000000e+02 
93.773   7.69000000e+02 
93.737   8.46000000e+02 
93.701   8.13000000e+02 
93.665   8.07000000e+02 
93.629   8.96000000e+02 
93.593   8.71000000e+02 
93.557   8.91000000e+02 
93.521   8.80000000e+02 
93.485   8.92000000e+02 
93.449   9.33000000e+02 
93.413   9.80000000e+02 
93.377   9.98000000e+02 
93.341   1.02300000e+03 
93.305   1.06800000e+03 
93.270   1.14200000e+03 
93.234   1.15900000e+03 
93.198   1.17800000e+03 
93.162   1.29200000e+03 
93.126   1.30100000e+03 
93.090   1.35300000e+03 
93.054   1.39900000e+03 
93.018   1.44800000e+03 
92.982   1.41200000e+03 
92.946   1.61000000e+03 
92.910   1.64700000e+03 
92.874   1.68400000e+03 
92.838   1.77500000e+03 
92.802   1.80300000e+03 
92.766   1.88300000e+03 
92.730   1.97300000e+03 
92.695   1.95400000e+03 
92.659   2.10900000e+03 
92.623   2.07000000e+03 
92.587   2.12200000e+03 
92.551   2.25300000e+03 
92.515   2.20600000e+03 
92.479   2.33200000e+03 
92.443   2.39800000e+03 
92.407   2.44200000e+03 
92.371   2.41400000e+03 
92.335   2.55400000e+03 
92.299   2.42000000e+03 
92.263   2.53400000e+03 
92.227   2.55300000e+03 
92.191   2.60800000e+03 
92.155   2.56000000e+03 
92.120   2.69400000e+03 
92.084   2.58900000e+03 
92.048   2.57500000e+03 
92.012   2.59900000e+03 
91.976   2.52500000e+03 
91.940   2.62200000e+03 
91.904   2.58400000e+03 
91.868   2.52200000e+03 
91.832   2.45300000e+03 
91.796   2.58300000e+03 
91.760   2.58800000e+03 
91.724   2.57300000e+03 
91.688   2.57600000e+03 
91.652   2.51600000e+03 
91.616   2.60900000e+03 
91.580   2.49300000e+03 
91.545   2.42200000e+03 
91.509   2.48400000e+03 
91.473   2.52200000e+03 
91.437   2.54500000e+03 
91.401   2.38700000e+03 
91.365   2.41800000e+03 
91.329   2.44400000e+03 
91.293   2.39200000e+03 
91.257   2.25500000e+03 
91.221   2.40600000e+03 
91.185   2.34000000e+03 
91.149   2.34400000e+03 
91.113   2.17400000e+03 
91.077   2.14500000e+03 
91.041   2.17400000e+03 
91.005   2.06300000e+03 
90.970   2.05700000e+03 
90.934   2.00300000e+03 
90.898   1.92700000e+03 
90.862   1.85800000e+03 
90.826   1.84800000e+03 
90.790   1.70100000e+03 
90.754   1.64000000e+03 
90.718   1.57700000e+03 
90.682   1.41400000e+03 
90.646   1.47000000e+03 
90.610   1.29800000e+03 
90.574   1.22800000e+03 
90.538   1.09800000e+03 
90.502   9.88000000e+02 
90.466   9.55000000e+02 
90.430   8.44000000e+02 
90.395   8.30000000e+02 
90.359   7.41000000e+02 
90.323   6.74000000e+02 
90.287   5.88000000e+02 
90.251   5.94000000e+02 
90.215   5.10000000e+02 
90.179   4.96000000e+02 
90.143   4.62000000e+02 
90.107   3.88000000e+02 
90.071   4.26000000e+02 
90.035   4.24000000e+02 
89.999   4.13000000e+02 
89.963   3.78000000e+02 
89.927   3.42000000e+02 
89.891   3.27000000e+02 
89.855   3.34000000e+02 
89.820   3.41000000e+02 
89.784   3.37000000e+02 
89.748   3.01000000e+02 
89.712   3.01000000e+02 
89.676   2.71000000e+02 
89.640   2.99000000e+02 
89.604   3.00000000e+02 
89.568   2.59000000e+02 
89.532   2.95000000e+02 
89.496   2.66000000e+02 
89.460   2.58000000e+02 
89.424   2.35000000e+02 
89.388   2.41000000e+02 
89.352   2.56000000e+02 
89.316   2.63000000e+02 
89.280   2.57000000e+02 
89.245   2.83000000e+02 
89.209   2.41000000e+02 
89.173   2.43000000e+02 
89.137   2.88000000e+02 
89.101   2.61000000e+02 
89.065   2.36000000e+02 
89.029   2.43000000e+02 
88.993   2.60000000e+02 
88.957   2.23000000e+02 
88.921   2.34000000e+02 
88.885   2.15000000e+02 
88.849   2.29000000e+02 
88.813   2.30000000e+02 
88.777   2.14000000e+02 
88.741   2.55000000e+02 
88.705   2.03000000e+02 
88.670   2.33000000e+02 
88.634   2.27000000e+02 
88.598   2.05000000e+02 
88.562   2.28000000e+02 
88.526   2.04000000e+02 
88.490   2.02000000e+02 
88.454   2.31000000e+02 
88.418   1.92000000e+02 
88.382   2.20000000e+02 
88.346   2.12000000e+02 
88.310   1.91000000e+02 
88.274   2.10000000e+02 
88.238   2.43000000e+02 
88.202   2.12000000e+02 
88.166   2.15000000e+02 
88.130   2.01000000e+02 
88.095   1.98000000e+02 
88.059   2.16000000e+02 
88.023   2.05000000e+02 

