EXPERIMENT FILE
Version = 2

[ Experiment Parameters ]
Experiment Description= <none> 
Number_of_Regions_in_Experiment= 1 

Original_File_name= C:\alexesca\data\10252012_Au _4f_56nuetral+39_Mono219.xps 
Instrument= HP ESCA West
Date= 10-25-2012
Time=  18:12:03

[ Layer Parameters ]
Layer_Type= XPS

[ Region 1 Parameters ]
Region_Description = Au 4f Dithered Scan                
BEcenter(eV) = 93.000000
BEwidth(eV) = 10.000000
BEstep(eV) = 0.035937
Dwell_Time(sec) = 1.000000
N_o_scans = 1  
N_o_Channels = 278  
Scan_mode = 0  (DITHERED)

[ L= 1 R= 1 ]
BEcenter= 93.000  
BEwidth= -9.955  
Excitation= 1486.600
Time_p_channel= 256.000 
Size= 278
97.977   6.04000000e+02 
97.941   5.67000000e+02 
97.905   6.02000000e+02 
97.870   5.62000000e+02 
97.834   5.73000000e+02 
97.798   6.00000000e+02 
97.762   6.62000000e+02 
97.726   5.83000000e+02 
97.690   6.52000000e+02 
97.654   6.41000000e+02 
97.618   6.30000000e+02 
97.582   6.30000000e+02 
97.546   6.53000000e+02 
97.510   6.60000000e+02 
97.474   6.74000000e+02 
97.438   7.21000000e+02 
97.402   6.99000000e+02 
97.366   6.87000000e+02 
97.330   7.39000000e+02 
97.295   7.57000000e+02 
97.259   7.75000000e+02 
97.223   7.34000000e+02 
97.187   7.56000000e+02 
97.151   7.59000000e+02 
97.115   8.20000000e+02 
97.079   8.87000000e+02 
97.043   9.60000000e+02 
97.007   9.17000000e+02 
96.971   9.25000000e+02 
96.935   1.00800000e+03 
96.899   1.00900000e+03 
96.863   1.02300000e+03 
96.827   1.03700000e+03 
96.791   1.08400000e+03 
96.755   1.09900000e+03 
96.720   1.16600000e+03 
96.684   1.17300000e+03 
96.648   1.28600000e+03 
96.612   1.32800000e+03 
96.576   1.31500000e+03 
96.540   1.42500000e+03 
96.504   1.38800000e+03 
96.468   1.44000000e+03 
96.432   1.45200000e+03 
96.396   1.52500000e+03 
96.360   1.58600000e+03 
96.324   1.65300000e+03 
96.288   1.69600000e+03 
96.252   1.75400000e+03 
96.216   1.78600000e+03 
96.180   1.75900000e+03 
96.145   1.92800000e+03 
96.109   1.81000000e+03 
96.073   1.91600000e+03 
96.037   1.88300000e+03 
96.001   1.98200000e+03 
95.965   1.95500000e+03 
95.929   2.02500000e+03 
95.893   2.06500000e+03 
95.857   2.08400000e+03 
95.821   2.02700000e+03 
95.785   2.08700000e+03 
95.749   2.10600000e+03 
95.713   2.12400000e+03 
95.677   2.19800000e+03 
95.641   2.14100000e+03 
95.605   2.18000000e+03 
95.570   2.12100000e+03 
95.534   2.18100000e+03 
95.498   2.16200000e+03 
95.462   2.15600000e+03 
95.426   2.19900000e+03 
95.390   2.13500000e+03 
95.354   2.21300000e+03 
95.318   2.25700000e+03 
95.282   2.17800000e+03 
95.246   2.21200000e+03 
95.210   2.16900000e+03 
95.174   2.22100000e+03 
95.138   2.14700000e+03 
95.102   2.21100000e+03 
95.066   2.20700000e+03 
95.030   2.17800000e+03 
94.995   2.30200000e+03 
94.959   2.22300000e+03 
94.923   2.17400000e+03 
94.887   2.24500000e+03 
94.851   2.20400000e+03 
94.815   2.15200000e+03 
94.779   2.10400000e+03 
94.743   2.07200000e+03 
94.707   2.08700000e+03 
94.671   2.08600000e+03 
94.635   2.02300000e+03 
94.599   1.99000000e+03 
94.563   1.95600000e+03 
94.527   1.94100000e+03 
94.491   1.84300000e+03 
94.455   1.90200000e+03 
94.420   1.78000000e+03 
94.384   1.69100000e+03 
94.348   1.70600000e+03 
94.312   1.55100000e+03 
94.276   1.51400000e+03 
94.240   1.47000000e+03 
94.204   1.38000000e+03 
94.168   1.25400000e+03 
94.132   1.27500000e+03 
94.096   1.20300000e+03 
94.060   1.14200000e+03 
94.024   1.11400000e+03 
93.988   1.09200000e+03 
93.952   9.56000000e+02 
93.916   9.75000000e+02 
93.880   9.06000000e+02 
93.845   8.86000000e+02 
93.809   8.58000000e+02 
93.773   8.19000000e+02 
93.737   8.24000000e+02 
93.701   8.88000000e+02 
93.665   8.26000000e+02 
93.629   8.47000000e+02 
93.593   8.79000000e+02 
93.557   8.20000000e+02 
93.521   8.38000000e+02 
93.485   8.98000000e+02 
93.449   8.45000000e+02 
93.413   9.22000000e+02 
93.377   9.36000000e+02 
93.341   1.04500000e+03 
93.305   9.56000000e+02 
93.270   1.06200000e+03 
93.234   1.09900000e+03 
93.198   1.06700000e+03 
93.162   1.17000000e+03 
93.126   1.20600000e+03 
93.090   1.25300000e+03 
93.054   1.30000000e+03 
93.018   1.29200000e+03 
92.982   1.43000000e+03 
92.946   1.42800000e+03 
92.910   1.51700000e+03 
92.874   1.55700000e+03 
92.838   1.55300000e+03 
92.802   1.60500000e+03 
92.766   1.69900000e+03 
92.730   1.75400000e+03 
92.695   1.77400000e+03 
92.659   1.83100000e+03 
92.623   1.99200000e+03 
92.587   1.90900000e+03 
92.551   1.99300000e+03 
92.515   2.07900000e+03 
92.479   2.03000000e+03 
92.443   2.17100000e+03 
92.407   2.16600000e+03 
92.371   2.19900000e+03 
92.335   2.30100000e+03 
92.299   2.27000000e+03 
92.263   2.23500000e+03 
92.227   2.31100000e+03 
92.191   2.32600000e+03 
92.155   2.31300000e+03 
92.120   2.41400000e+03 
92.084   2.39500000e+03 
92.048   2.39800000e+03 
92.012   2.43900000e+03 
91.976   2.47600000e+03 
91.940   2.47900000e+03 
91.904   2.46100000e+03 
91.868   2.48200000e+03 
91.832   2.44200000e+03 
91.796   2.50800000e+03 
91.760   2.55800000e+03 
91.724   2.51900000e+03 
91.688   2.49800000e+03 
91.652   2.56500000e+03 
91.616   2.52900000e+03 
91.580   2.57500000e+03 
91.545   2.57200000e+03 
91.509   2.53800000e+03 
91.473   2.50400000e+03 
91.437   2.48400000e+03 
91.401   2.62800000e+03 
91.365   2.60500000e+03 
91.329   2.61000000e+03 
91.293   2.51800000e+03 
91.257   2.48500000e+03 
91.221   2.48500000e+03 
91.185   2.45300000e+03 
91.149   2.42700000e+03 
91.113   2.40600000e+03 
91.077   2.49000000e+03 
91.041   2.27300000e+03 
91.005   2.42700000e+03 
90.970   2.29000000e+03 
90.934   2.22300000e+03 
90.898   2.18300000e+03 
90.862   2.14700000e+03 
90.826   2.05800000e+03 
90.790   2.02800000e+03 
90.754   1.85500000e+03 
90.718   1.75200000e+03 
90.682   1.72800000e+03 
90.646   1.72800000e+03 
90.610   1.56900000e+03 
90.574   1.47400000e+03 
90.538   1.35400000e+03 
90.502   1.34400000e+03 
90.466   1.16100000e+03 
90.430   1.10800000e+03 
90.395   1.01300000e+03 
90.359   9.51000000e+02 
90.323   8.75000000e+02 
90.287   7.76000000e+02 
90.251   6.75000000e+02 
90.215   6.82000000e+02 
90.179   5.80000000e+02 
90.143   5.24000000e+02 
90.107   5.53000000e+02 
90.071   4.84000000e+02 
90.035   4.74000000e+02 
89.999   4.57000000e+02 
89.963   4.76000000e+02 
89.927   3.77000000e+02 
89.891   3.88000000e+02 
89.855   3.54000000e+02 
89.820   3.57000000e+02 
89.784   3.36000000e+02 
89.748   3.15000000e+02 
89.712   3.58000000e+02 
89.676   2.98000000e+02 
89.640   3.34000000e+02 
89.604   2.74000000e+02 
89.568   2.90000000e+02 
89.532   2.88000000e+02 
89.496   2.71000000e+02 
89.460   2.84000000e+02 
89.424   2.81000000e+02 
89.388   2.66000000e+02 
89.352   2.55000000e+02 
89.316   2.33000000e+02 
89.280   2.71000000e+02 
89.245   2.54000000e+02 
89.209   2.72000000e+02 
89.173   2.34000000e+02 
89.137   2.44000000e+02 
89.101   2.51000000e+02 
89.065   2.45000000e+02 
89.029   2.58000000e+02 
88.993   2.56000000e+02 
88.957   2.33000000e+02 
88.921   2.57000000e+02 
88.885   2.27000000e+02 
88.849   2.51000000e+02 
88.813   2.47000000e+02 
88.777   2.13000000e+02 
88.741   2.24000000e+02 
88.705   2.22000000e+02 
88.670   2.26000000e+02 
88.634   2.07000000e+02 
88.598   2.16000000e+02 
88.562   2.35000000e+02 
88.526   2.25000000e+02 
88.490   2.25000000e+02 
88.454   2.06000000e+02 
88.418   1.99000000e+02 
88.382   2.31000000e+02 
88.346   2.21000000e+02 
88.310   2.14000000e+02 
88.274   2.39000000e+02 
88.238   2.13000000e+02 
88.202   2.26000000e+02 
88.166   2.04000000e+02 
88.130   2.15000000e+02 
88.095   1.93000000e+02 
88.059   2.31000000e+02 
88.023   2.12000000e+02 

