EXPERIMENT FILE
Version = 2

[ Experiment Parameters ]
Experiment Description= <none> 
Number_of_Regions_in_Experiment= 1 

Original_File_name= C:\alexesca\data\10252012_Au _4f_56nuetral+39_Mono222.xps 
Instrument= HP ESCA West
Date= 10-25-2012
Time=  17:31:46

[ Layer Parameters ]
Layer_Type= XPS

[ Region 1 Parameters ]
Region_Description = Au 4f Dithered Scan                
BEcenter(eV) = 93.000000
BEwidth(eV) = 10.000000
BEstep(eV) = 0.035937
Dwell_Time(sec) = 1.000000
N_o_scans = 1  
N_o_Channels = 278  
Scan_mode = 0  (DITHERED)

[ L= 1 R= 1 ]
BEcenter= 93.000  
BEwidth= -9.955  
Excitation= 1486.600
Time_p_channel= 256.000 
Size= 278
97.977   6.02000000e+02 
97.941   6.13000000e+02 
97.905   6.21000000e+02 
97.870   6.02000000e+02 
97.834   6.10000000e+02 
97.798   6.14000000e+02 
97.762   6.19000000e+02 
97.726   6.37000000e+02 
97.690   6.49000000e+02 
97.654   6.85000000e+02 
97.618   6.20000000e+02 
97.582   6.09000000e+02 
97.546   6.50000000e+02 
97.510   7.03000000e+02 
97.474   6.89000000e+02 
97.438   7.35000000e+02 
97.402   7.04000000e+02 
97.366   7.26000000e+02 
97.330   7.25000000e+02 
97.295   8.06000000e+02 
97.259   8.08000000e+02 
97.223   7.62000000e+02 
97.187   7.80000000e+02 
97.151   8.47000000e+02 
97.115   8.11000000e+02 
97.079   8.45000000e+02 
97.043   9.36000000e+02 
97.007   9.16000000e+02 
96.971   1.03300000e+03 
96.935   9.74000000e+02 
96.899   1.01000000e+03 
96.863   1.08200000e+03 
96.827   1.08100000e+03 
96.791   1.17100000e+03 
96.755   1.18800000e+03 
96.720   1.19100000e+03 
96.684   1.24700000e+03 
96.648   1.35700000e+03 
96.612   1.35400000e+03 
96.576   1.43800000e+03 
96.540   1.40100000e+03 
96.504   1.55100000e+03 
96.468   1.51400000e+03 
96.432   1.61800000e+03 
96.396   1.72300000e+03 
96.360   1.71600000e+03 
96.324   1.70700000e+03 
96.288   1.84700000e+03 
96.252   1.78700000e+03 
96.216   1.85300000e+03 
96.180   1.90600000e+03 
96.145   1.89700000e+03 
96.109   2.07100000e+03 
96.073   2.04700000e+03 
96.037   2.02300000e+03 
96.001   2.00300000e+03 
95.965   2.12000000e+03 
95.929   2.13500000e+03 
95.893   2.11300000e+03 
95.857   2.13700000e+03 
95.821   2.16400000e+03 
95.785   2.19200000e+03 
95.749   2.23400000e+03 
95.713   2.17700000e+03 
95.677   2.25300000e+03 
95.641   2.24700000e+03 
95.605   2.23900000e+03 
95.570   2.23300000e+03 
95.534   2.35800000e+03 
95.498   2.22800000e+03 
95.462   2.23800000e+03 
95.426   2.24200000e+03 
95.390   2.24100000e+03 
95.354   2.28600000e+03 
95.318   2.22100000e+03 
95.282   2.31100000e+03 
95.246   2.21900000e+03 
95.210   2.16200000e+03 
95.174   2.22300000e+03 
95.138   2.22000000e+03 
95.102   2.25300000e+03 
95.066   2.21500000e+03 
95.030   2.16600000e+03 
94.995   2.19800000e+03 
94.959   2.23300000e+03 
94.923   2.14300000e+03 
94.887   2.15100000e+03 
94.851   2.11400000e+03 
94.815   2.01100000e+03 
94.779   2.05600000e+03 
94.743   2.10700000e+03 
94.707   2.00100000e+03 
94.671   1.96200000e+03 
94.635   1.93500000e+03 
94.599   1.92800000e+03 
94.563   1.86800000e+03 
94.527   1.86600000e+03 
94.491   1.75100000e+03 
94.455   1.75700000e+03 
94.420   1.64400000e+03 
94.384   1.63700000e+03 
94.348   1.60600000e+03 
94.312   1.49200000e+03 
94.276   1.43800000e+03 
94.240   1.48600000e+03 
94.204   1.33200000e+03 
94.168   1.24200000e+03 
94.132   1.26100000e+03 
94.096   1.20200000e+03 
94.060   1.06200000e+03 
94.024   9.83000000e+02 
93.988   9.62000000e+02 
93.952   9.55000000e+02 
93.916   9.15000000e+02 
93.880   9.29000000e+02 
93.845   8.79000000e+02 
93.809   8.71000000e+02 
93.773   8.49000000e+02 
93.737   8.54000000e+02 
93.701   8.04000000e+02 
93.665   8.20000000e+02 
93.629   8.93000000e+02 
93.593   8.47000000e+02 
93.557   8.98000000e+02 
93.521   8.93000000e+02 
93.485   8.65000000e+02 
93.449   8.84000000e+02 
93.413   9.35000000e+02 
93.377   9.75000000e+02 
93.341   9.73000000e+02 
93.305   1.07400000e+03 
93.270   1.05600000e+03 
93.234   1.06500000e+03 
93.198   1.15500000e+03 
93.162   1.22700000e+03 
93.126   1.30800000e+03 
93.090   1.29300000e+03 
93.054   1.31400000e+03 
93.018   1.35700000e+03 
92.982   1.40200000e+03 
92.946   1.52400000e+03 
92.910   1.55900000e+03 
92.874   1.61100000e+03 
92.838   1.64200000e+03 
92.802   1.73100000e+03 
92.766   1.80400000e+03 
92.730   1.88400000e+03 
92.695   1.96800000e+03 
92.659   2.02800000e+03 
92.623   2.02300000e+03 
92.587   2.04000000e+03 
92.551   2.15700000e+03 
92.515   2.21100000e+03 
92.479   2.21700000e+03 
92.443   2.33800000e+03 
92.407   2.41100000e+03 
92.371   2.42200000e+03 
92.335   2.30800000e+03 
92.299   2.43700000e+03 
92.263   2.42500000e+03 
92.227   2.47300000e+03 
92.191   2.53400000e+03 
92.155   2.55800000e+03 
92.120   2.59400000e+03 
92.084   2.53100000e+03 
92.048   2.58900000e+03 
92.012   2.51500000e+03 
91.976   2.52200000e+03 
91.940   2.58000000e+03 
91.904   2.60900000e+03 
91.868   2.59000000e+03 
91.832   2.61900000e+03 
91.796   2.54600000e+03 
91.760   2.61300000e+03 
91.724   2.48600000e+03 
91.688   2.64200000e+03 
91.652   2.63300000e+03 
91.616   2.51100000e+03 
91.580   2.56900000e+03 
91.545   2.51700000e+03 
91.509   2.59000000e+03 
91.473   2.50000000e+03 
91.437   2.54000000e+03 
91.401   2.53900000e+03 
91.365   2.47400000e+03 
91.329   2.53000000e+03 
91.293   2.50900000e+03 
91.257   2.44200000e+03 
91.221   2.48100000e+03 
91.185   2.37200000e+03 
91.149   2.42300000e+03 
91.113   2.46600000e+03 
91.077   2.32700000e+03 
91.041   2.34500000e+03 
91.005   2.26600000e+03 
90.970   2.18800000e+03 
90.934   2.05300000e+03 
90.898   2.00200000e+03 
90.862   2.05900000e+03 
90.826   1.94700000e+03 
90.790   1.95700000e+03 
90.754   1.88800000e+03 
90.718   1.69800000e+03 
90.682   1.66500000e+03 
90.646   1.57100000e+03 
90.610   1.51500000e+03 
90.574   1.42600000e+03 
90.538   1.32700000e+03 
90.502   1.21700000e+03 
90.466   1.14000000e+03 
90.430   9.72000000e+02 
90.395   9.79000000e+02 
90.359   8.75000000e+02 
90.323   7.91000000e+02 
90.287   7.44000000e+02 
90.251   6.65000000e+02 
90.215   6.02000000e+02 
90.179   5.60000000e+02 
90.143   5.27000000e+02 
90.107   4.85000000e+02 
90.071   4.80000000e+02 
90.035   4.59000000e+02 
89.999   4.09000000e+02 
89.963   4.11000000e+02 
89.927   3.75000000e+02 
89.891   3.83000000e+02 
89.855   3.49000000e+02 
89.820   3.46000000e+02 
89.784   3.37000000e+02 
89.748   3.37000000e+02 
89.712   3.10000000e+02 
89.676   3.16000000e+02 
89.640   2.86000000e+02 
89.604   2.47000000e+02 
89.568   3.01000000e+02 
89.532   2.91000000e+02 
89.496   2.74000000e+02 
89.460   2.62000000e+02 
89.424   2.76000000e+02 
89.388   2.98000000e+02 
89.352   2.45000000e+02 
89.316   2.62000000e+02 
89.280   2.39000000e+02 
89.245   2.45000000e+02 
89.209   2.78000000e+02 
89.173   2.35000000e+02 
89.137   2.44000000e+02 
89.101   2.52000000e+02 
89.065   2.44000000e+02 
89.029   2.31000000e+02 
88.993   2.38000000e+02 
88.957   2.24000000e+02 
88.921   2.47000000e+02 
88.885   2.28000000e+02 
88.849   2.52000000e+02 
88.813   2.42000000e+02 
88.777   2.36000000e+02 
88.741   2.55000000e+02 
88.705   2.68000000e+02 
88.670   2.26000000e+02 
88.634   2.32000000e+02 
88.598   2.14000000e+02 
88.562   2.31000000e+02 
88.526   2.28000000e+02 
88.490   2.27000000e+02 
88.454   2.07000000e+02 
88.418   2.33000000e+02 
88.382   2.42000000e+02 
88.346   2.34000000e+02 
88.310   2.19000000e+02 
88.274   2.41000000e+02 
88.238   2.21000000e+02 
88.202   2.06000000e+02 
88.166   2.09000000e+02 
88.130   1.88000000e+02 
88.095   2.42000000e+02 
88.059   2.21000000e+02 
88.023   2.29000000e+02 

