EXPERIMENT FILE
Version = 2

[ Experiment Parameters ]
Experiment Description= <none> 
Number_of_Regions_in_Experiment= 1 

Original_File_name= C:\alexesca\data\10252012_Au _4f_56nuetral-26_Mono219.xps 
Instrument= HP ESCA West
Date= 10-26-2012
Time=  15:49:02

[ Layer Parameters ]
Layer_Type= XPS

[ Region 1 Parameters ]
Region_Description = Au 4f Dithered Scan                
BEcenter(eV) = 93.000000
BEwidth(eV) = 10.000000
BEstep(eV) = 0.035937
Dwell_Time(sec) = 1.000000
N_o_scans = 1  
N_o_Channels = 278  
Scan_mode = 0  (DITHERED)

[ L= 1 R= 1 ]
BEcenter= 93.000  
BEwidth= -9.955  
Excitation= 1486.600
Time_p_channel= 256.000 
Size= 278
97.977   1.39000000e+02 
97.941   1.28000000e+02 
97.905   1.54000000e+02 
97.870   1.49000000e+02 
97.834   1.14000000e+02 
97.798   1.16000000e+02 
97.762   1.40000000e+02 
97.726   1.55000000e+02 
97.690   1.39000000e+02 
97.654   1.22000000e+02 
97.618   1.61000000e+02 
97.582   1.53000000e+02 
97.546   1.50000000e+02 
97.510   1.12000000e+02 
97.474   1.58000000e+02 
97.438   1.47000000e+02 
97.402   1.53000000e+02 
97.366   1.54000000e+02 
97.330   1.68000000e+02 
97.295   1.48000000e+02 
97.259   1.34000000e+02 
97.223   1.59000000e+02 
97.187   1.62000000e+02 
97.151   1.67000000e+02 
97.115   1.72000000e+02 
97.079   1.59000000e+02 
97.043   1.74000000e+02 
97.007   1.71000000e+02 
96.971   1.45000000e+02 
96.935   1.71000000e+02 
96.899   1.51000000e+02 
96.863   1.57000000e+02 
96.827   1.40000000e+02 
96.791   1.88000000e+02 
96.755   1.53000000e+02 
96.720   1.90000000e+02 
96.684   1.68000000e+02 
96.648   1.83000000e+02 
96.612   1.72000000e+02 
96.576   1.91000000e+02 
96.540   2.17000000e+02 
96.504   2.18000000e+02 
96.468   2.14000000e+02 
96.432   2.11000000e+02 
96.396   2.20000000e+02 
96.360   2.15000000e+02 
96.324   2.22000000e+02 
96.288   2.47000000e+02 
96.252   2.56000000e+02 
96.216   2.50000000e+02 
96.180   2.71000000e+02 
96.145   2.76000000e+02 
96.109   2.76000000e+02 
96.073   2.85000000e+02 
96.037   3.11000000e+02 
96.001   3.30000000e+02 
95.965   3.36000000e+02 
95.929   3.68000000e+02 
95.893   3.77000000e+02 
95.857   4.25000000e+02 
95.821   3.90000000e+02 
95.785   4.53000000e+02 
95.749   4.54000000e+02 
95.713   4.89000000e+02 
95.677   5.16000000e+02 
95.641   5.32000000e+02 
95.605   5.40000000e+02 
95.570   5.53000000e+02 
95.534   5.70000000e+02 
95.498   6.16000000e+02 
95.462   6.76000000e+02 
95.426   6.06000000e+02 
95.390   7.13000000e+02 
95.354   7.60000000e+02 
95.318   7.08000000e+02 
95.282   7.24000000e+02 
95.246   7.51000000e+02 
95.210   7.13000000e+02 
95.174   7.68000000e+02 
95.138   7.51000000e+02 
95.102   7.86000000e+02 
95.066   7.01000000e+02 
95.030   7.04000000e+02 
94.995   6.72000000e+02 
94.959   6.65000000e+02 
94.923   5.85000000e+02 
94.887   5.60000000e+02 
94.851   5.12000000e+02 
94.815   4.41000000e+02 
94.779   4.19000000e+02 
94.743   4.00000000e+02 
94.707   3.98000000e+02 
94.671   3.39000000e+02 
94.635   2.89000000e+02 
94.599   2.64000000e+02 
94.563   2.43000000e+02 
94.527   2.51000000e+02 
94.491   2.53000000e+02 
94.455   2.06000000e+02 
94.420   1.84000000e+02 
94.384   1.83000000e+02 
94.348   1.73000000e+02 
94.312   1.66000000e+02 
94.276   1.70000000e+02 
94.240   1.66000000e+02 
94.204   1.72000000e+02 
94.168   1.50000000e+02 
94.132   1.59000000e+02 
94.096   1.74000000e+02 
94.060   1.34000000e+02 
94.024   1.52000000e+02 
93.988   1.55000000e+02 
93.952   1.61000000e+02 
93.916   1.35000000e+02 
93.880   1.55000000e+02 
93.845   1.37000000e+02 
93.809   1.43000000e+02 
93.773   1.44000000e+02 
93.737   1.38000000e+02 
93.701   1.52000000e+02 
93.665   1.42000000e+02 
93.629   1.34000000e+02 
93.593   1.31000000e+02 
93.557   1.54000000e+02 
93.521   1.26000000e+02 
93.485   1.58000000e+02 
93.449   1.42000000e+02 
93.413   1.53000000e+02 
93.377   1.58000000e+02 
93.341   1.44000000e+02 
93.305   1.38000000e+02 
93.270   1.57000000e+02 
93.234   1.50000000e+02 
93.198   1.48000000e+02 
93.162   1.57000000e+02 
93.126   1.67000000e+02 
93.090   1.96000000e+02 
93.054   1.72000000e+02 
93.018   1.56000000e+02 
92.982   1.62000000e+02 
92.946   1.76000000e+02 
92.910   1.75000000e+02 
92.874   1.95000000e+02 
92.838   1.97000000e+02 
92.802   1.98000000e+02 
92.766   1.96000000e+02 
92.730   2.18000000e+02 
92.695   2.39000000e+02 
92.659   2.41000000e+02 
92.623   2.71000000e+02 
92.587   2.77000000e+02 
92.551   2.81000000e+02 
92.515   3.15000000e+02 
92.479   3.07000000e+02 
92.443   3.17000000e+02 
92.407   3.44000000e+02 
92.371   3.44000000e+02 
92.335   3.65000000e+02 
92.299   3.40000000e+02 
92.263   3.60000000e+02 
92.227   3.88000000e+02 
92.191   4.30000000e+02 
92.155   4.81000000e+02 
92.120   5.12000000e+02 
92.084   5.08000000e+02 
92.048   5.58000000e+02 
92.012   5.29000000e+02 
91.976   5.94000000e+02 
91.940   6.16000000e+02 
91.904   6.63000000e+02 
91.868   6.69000000e+02 
91.832   7.42000000e+02 
91.796   8.00000000e+02 
91.760   8.04000000e+02 
91.724   8.26000000e+02 
91.688   8.70000000e+02 
91.652   8.56000000e+02 
91.616   9.44000000e+02 
91.580   9.23000000e+02 
91.545   8.53000000e+02 
91.509   9.30000000e+02 
91.473   8.86000000e+02 
91.437   9.01000000e+02 
91.401   8.72000000e+02 
91.365   8.90000000e+02 
91.329   8.05000000e+02 
91.293   7.63000000e+02 
91.257   7.53000000e+02 
91.221   6.17000000e+02 
91.185   6.22000000e+02 
91.149   5.27000000e+02 
91.113   5.26000000e+02 
91.077   4.42000000e+02 
91.041   4.13000000e+02 
91.005   4.28000000e+02 
90.970   3.31000000e+02 
90.934   2.95000000e+02 
90.898   2.35000000e+02 
90.862   2.66000000e+02 
90.826   2.21000000e+02 
90.790   2.03000000e+02 
90.754   1.70000000e+02 
90.718   1.75000000e+02 
90.682   1.51000000e+02 
90.646   1.36000000e+02 
90.610   1.37000000e+02 
90.574   1.29000000e+02 
90.538   1.34000000e+02 
90.502   1.09000000e+02 
90.466   1.28000000e+02 
90.430   1.11000000e+02 
90.395   1.01000000e+02 
90.359   1.14000000e+02 
90.323   1.15000000e+02 
90.287   1.00000000e+02 
90.251   9.50000000e+01 
90.215   1.01000000e+02 
90.179   9.80000000e+01 
90.143   8.60000000e+01 
90.107   8.50000000e+01 
90.071   8.70000000e+01 
90.035   8.80000000e+01 
89.999   7.40000000e+01 
89.963   8.50000000e+01 
89.927   8.20000000e+01 
89.891   7.90000000e+01 
89.855   8.50000000e+01 
89.820   6.50000000e+01 
89.784   8.00000000e+01 
89.748   7.70000000e+01 
89.712   8.50000000e+01 
89.676   8.40000000e+01 
89.640   7.30000000e+01 
89.604   7.50000000e+01 
89.568   6.40000000e+01 
89.532   7.50000000e+01 
89.496   6.10000000e+01 
89.460   6.40000000e+01 
89.424   7.10000000e+01 
89.388   7.20000000e+01 
89.352   9.70000000e+01 
89.316   6.00000000e+01 
89.280   9.20000000e+01 
89.245   7.30000000e+01 
89.209   6.40000000e+01 
89.173   8.40000000e+01 
89.137   5.20000000e+01 
89.101   6.70000000e+01 
89.065   7.00000000e+01 
89.029   7.50000000e+01 
88.993   6.70000000e+01 
88.957   7.20000000e+01 
88.921   5.00000000e+01 
88.885   4.60000000e+01 
88.849   6.00000000e+01 
88.813   5.90000000e+01 
88.777   6.80000000e+01 
88.741   5.50000000e+01 
88.705   7.00000000e+01 
88.670   6.90000000e+01 
88.634   4.80000000e+01 
88.598   5.20000000e+01 
88.562   6.30000000e+01 
88.526   5.80000000e+01 
88.490   6.20000000e+01 
88.454   7.60000000e+01 
88.418   5.10000000e+01 
88.382   6.70000000e+01 
88.346   6.80000000e+01 
88.310   5.40000000e+01 
88.274   6.10000000e+01 
88.238   7.00000000e+01 
88.202   5.70000000e+01 
88.166   6.60000000e+01 
88.130   5.70000000e+01 
88.095   6.10000000e+01 
88.059   5.30000000e+01 
88.023   6.10000000e+01 

