EXPERIMENT FILE
Version = 2

[ Experiment Parameters ]
Experiment Description= <none> 
Number_of_Regions_in_Experiment= 1 

Original_File_name= C:\alexesca\data\10252012_Au _4f_56nuetral-6_Mono225.xps 
Instrument= HP ESCA West
Date= 10-26-2012
Time=  15:31:38

[ Layer Parameters ]
Layer_Type= XPS

[ Region 1 Parameters ]
Region_Description = Au 4f Dithered Scan                
BEcenter(eV) = 93.000000
BEwidth(eV) = 10.000000
BEstep(eV) = 0.035937
Dwell_Time(sec) = 1.000000
N_o_scans = 1  
N_o_Channels = 278  
Scan_mode = 0  (DITHERED)

[ L= 1 R= 1 ]
BEcenter= 93.000  
BEwidth= -9.955  
Excitation= 1486.600
Time_p_channel= 256.000 
Size= 278
97.977   3.24000000e+02 
97.941   3.09000000e+02 
97.905   3.12000000e+02 
97.870   3.12000000e+02 
97.834   3.29000000e+02 
97.798   3.07000000e+02 
97.762   3.23000000e+02 
97.726   3.42000000e+02 
97.690   3.13000000e+02 
97.654   3.63000000e+02 
97.618   3.09000000e+02 
97.582   3.15000000e+02 
97.546   2.94000000e+02 
97.510   3.36000000e+02 
97.474   3.37000000e+02 
97.438   3.48000000e+02 
97.402   3.55000000e+02 
97.366   3.43000000e+02 
97.330   3.41000000e+02 
97.295   4.05000000e+02 
97.259   3.81000000e+02 
97.223   4.01000000e+02 
97.187   4.06000000e+02 
97.151   3.62000000e+02 
97.115   4.18000000e+02 
97.079   3.97000000e+02 
97.043   4.40000000e+02 
97.007   4.31000000e+02 
96.971   4.27000000e+02 
96.935   4.54000000e+02 
96.899   4.55000000e+02 
96.863   4.77000000e+02 
96.827   5.19000000e+02 
96.791   4.88000000e+02 
96.755   4.70000000e+02 
96.720   5.63000000e+02 
96.684   5.16000000e+02 
96.648   6.14000000e+02 
96.612   5.51000000e+02 
96.576   6.00000000e+02 
96.540   6.21000000e+02 
96.504   6.14000000e+02 
96.468   6.79000000e+02 
96.432   7.05000000e+02 
96.396   7.22000000e+02 
96.360   7.02000000e+02 
96.324   8.33000000e+02 
96.288   8.12000000e+02 
96.252   7.65000000e+02 
96.216   8.28000000e+02 
96.180   8.66000000e+02 
96.145   8.82000000e+02 
96.109   9.31000000e+02 
96.073   1.04200000e+03 
96.037   1.00400000e+03 
96.001   1.03800000e+03 
95.965   1.09000000e+03 
95.929   1.13400000e+03 
95.893   1.12200000e+03 
95.857   1.16300000e+03 
95.821   1.27200000e+03 
95.785   1.30000000e+03 
95.749   1.29000000e+03 
95.713   1.34200000e+03 
95.677   1.38700000e+03 
95.641   1.48300000e+03 
95.605   1.51000000e+03 
95.570   1.46700000e+03 
95.534   1.55000000e+03 
95.498   1.55900000e+03 
95.462   1.57400000e+03 
95.426   1.57000000e+03 
95.390   1.61600000e+03 
95.354   1.60900000e+03 
95.318   1.67400000e+03 
95.282   1.65300000e+03 
95.246   1.63000000e+03 
95.210   1.59400000e+03 
95.174   1.53300000e+03 
95.138   1.56100000e+03 
95.102   1.53000000e+03 
95.066   1.43700000e+03 
95.030   1.41700000e+03 
94.995   1.37900000e+03 
94.959   1.33300000e+03 
94.923   1.25500000e+03 
94.887   1.13300000e+03 
94.851   1.02300000e+03 
94.815   9.81000000e+02 
94.779   1.01100000e+03 
94.743   8.64000000e+02 
94.707   7.81000000e+02 
94.671   6.97000000e+02 
94.635   6.76000000e+02 
94.599   6.12000000e+02 
94.563   6.01000000e+02 
94.527   5.58000000e+02 
94.491   5.71000000e+02 
94.455   4.92000000e+02 
94.420   4.87000000e+02 
94.384   4.70000000e+02 
94.348   3.91000000e+02 
94.312   4.23000000e+02 
94.276   3.78000000e+02 
94.240   4.07000000e+02 
94.204   4.32000000e+02 
94.168   3.61000000e+02 
94.132   3.75000000e+02 
94.096   3.42000000e+02 
94.060   3.63000000e+02 
94.024   3.44000000e+02 
93.988   3.53000000e+02 
93.952   3.48000000e+02 
93.916   3.56000000e+02 
93.880   3.44000000e+02 
93.845   3.27000000e+02 
93.809   3.61000000e+02 
93.773   3.56000000e+02 
93.737   3.60000000e+02 
93.701   3.55000000e+02 
93.665   3.71000000e+02 
93.629   3.43000000e+02 
93.593   3.93000000e+02 
93.557   3.86000000e+02 
93.521   3.96000000e+02 
93.485   3.37000000e+02 
93.449   4.08000000e+02 
93.413   3.96000000e+02 
93.377   4.24000000e+02 
93.341   4.57000000e+02 
93.305   4.47000000e+02 
93.270   4.55000000e+02 
93.234   4.76000000e+02 
93.198   4.94000000e+02 
93.162   4.99000000e+02 
93.126   5.72000000e+02 
93.090   5.25000000e+02 
93.054   5.33000000e+02 
93.018   5.81000000e+02 
92.982   5.84000000e+02 
92.946   5.95000000e+02 
92.910   5.95000000e+02 
92.874   6.19000000e+02 
92.838   6.52000000e+02 
92.802   7.36000000e+02 
92.766   7.26000000e+02 
92.730   7.52000000e+02 
92.695   7.92000000e+02 
92.659   8.78000000e+02 
92.623   8.60000000e+02 
92.587   9.05000000e+02 
92.551   9.01000000e+02 
92.515   9.70000000e+02 
92.479   1.02600000e+03 
92.443   1.05800000e+03 
92.407   1.10700000e+03 
92.371   1.19100000e+03 
92.335   1.16200000e+03 
92.299   1.32900000e+03 
92.263   1.25000000e+03 
92.227   1.40200000e+03 
92.191   1.41300000e+03 
92.155   1.48500000e+03 
92.120   1.51900000e+03 
92.084   1.52600000e+03 
92.048   1.65000000e+03 
92.012   1.66000000e+03 
91.976   1.67000000e+03 
91.940   1.74600000e+03 
91.904   1.73900000e+03 
91.868   1.79300000e+03 
91.832   1.86900000e+03 
91.796   1.87400000e+03 
91.760   1.87000000e+03 
91.724   1.94000000e+03 
91.688   1.95200000e+03 
91.652   1.97500000e+03 
91.616   1.99400000e+03 
91.580   1.92900000e+03 
91.545   1.92600000e+03 
91.509   1.91000000e+03 
91.473   1.89500000e+03 
91.437   1.87100000e+03 
91.401   1.81300000e+03 
91.365   1.68200000e+03 
91.329   1.61400000e+03 
91.293   1.48800000e+03 
91.257   1.43900000e+03 
91.221   1.31200000e+03 
91.185   1.21700000e+03 
91.149   1.08300000e+03 
91.113   1.05000000e+03 
91.077   9.19000000e+02 
91.041   9.13000000e+02 
91.005   7.52000000e+02 
90.970   6.85000000e+02 
90.934   6.13000000e+02 
90.898   5.71000000e+02 
90.862   5.38000000e+02 
90.826   5.23000000e+02 
90.790   4.04000000e+02 
90.754   4.54000000e+02 
90.718   4.09000000e+02 
90.682   3.27000000e+02 
90.646   3.14000000e+02 
90.610   2.80000000e+02 
90.574   2.69000000e+02 
90.538   2.70000000e+02 
90.502   2.62000000e+02 
90.466   2.58000000e+02 
90.430   2.31000000e+02 
90.395   2.35000000e+02 
90.359   2.22000000e+02 
90.323   2.46000000e+02 
90.287   2.33000000e+02 
90.251   2.05000000e+02 
90.215   2.07000000e+02 
90.179   1.80000000e+02 
90.143   1.99000000e+02 
90.107   1.86000000e+02 
90.071   1.83000000e+02 
90.035   1.81000000e+02 
89.999   1.61000000e+02 
89.963   1.80000000e+02 
89.927   1.66000000e+02 
89.891   1.63000000e+02 
89.855   1.63000000e+02 
89.820   1.62000000e+02 
89.784   1.74000000e+02 
89.748   1.49000000e+02 
89.712   1.57000000e+02 
89.676   1.44000000e+02 
89.640   1.46000000e+02 
89.604   1.38000000e+02 
89.568   1.28000000e+02 
89.532   1.30000000e+02 
89.496   1.62000000e+02 
89.460   1.56000000e+02 
89.424   1.42000000e+02 
89.388   1.44000000e+02 
89.352   1.37000000e+02 
89.316   1.54000000e+02 
89.280   1.34000000e+02 
89.245   1.25000000e+02 
89.209   1.45000000e+02 
89.173   1.33000000e+02 
89.137   1.63000000e+02 
89.101   1.48000000e+02 
89.065   1.51000000e+02 
89.029   1.36000000e+02 
88.993   1.60000000e+02 
88.957   1.36000000e+02 
88.921   1.33000000e+02 
88.885   1.14000000e+02 
88.849   1.35000000e+02 
88.813   1.24000000e+02 
88.777   1.44000000e+02 
88.741   1.18000000e+02 
88.705   1.34000000e+02 
88.670   1.15000000e+02 
88.634   1.24000000e+02 
88.598   1.04000000e+02 
88.562   1.33000000e+02 
88.526   8.90000000e+01 
88.490   1.26000000e+02 
88.454   1.29000000e+02 
88.418   1.23000000e+02 
88.382   1.18000000e+02 
88.346   1.15000000e+02 
88.310   1.35000000e+02 
88.274   1.15000000e+02 
88.238   1.26000000e+02 
88.202   1.25000000e+02 
88.166   1.18000000e+02 
88.130   1.13000000e+02 
88.095   1.05000000e+02 
88.059   1.16000000e+02 
88.023   1.25000000e+02 

