EXPERIMENT FILE
Version = 2

[ Experiment Parameters ]
Experiment Description= <none> 
Number_of_Regions_in_Experiment= 1 

Original_File_name= C:\alexesca\data\10252012_Au _4f_56nuetral-26_Mono225.xps 
Instrument= HP ESCA West
Date= 10-26-2012
Time=  15:59:36

[ Layer Parameters ]
Layer_Type= XPS

[ Region 1 Parameters ]
Region_Description = Au 4f Dithered Scan                
BEcenter(eV) = 93.000000
BEwidth(eV) = 10.000000
BEstep(eV) = 0.035937
Dwell_Time(sec) = 1.000000
N_o_scans = 1  
N_o_Channels = 278  
Scan_mode = 0  (DITHERED)

[ L= 1 R= 1 ]
BEcenter= 93.000  
BEwidth= -9.955  
Excitation= 1486.600
Time_p_channel= 256.000 
Size= 278
97.977   1.46000000e+02 
97.941   1.53000000e+02 
97.905   1.43000000e+02 
97.870   1.34000000e+02 
97.834   1.12000000e+02 
97.798   1.29000000e+02 
97.762   1.38000000e+02 
97.726   1.50000000e+02 
97.690   1.45000000e+02 
97.654   1.27000000e+02 
97.618   1.42000000e+02 
97.582   1.10000000e+02 
97.546   1.21000000e+02 
97.510   1.27000000e+02 
97.474   1.48000000e+02 
97.438   1.48000000e+02 
97.402   1.28000000e+02 
97.366   1.60000000e+02 
97.330   1.51000000e+02 
97.295   1.59000000e+02 
97.259   1.46000000e+02 
97.223   1.49000000e+02 
97.187   1.30000000e+02 
97.151   1.33000000e+02 
97.115   1.41000000e+02 
97.079   1.46000000e+02 
97.043   1.53000000e+02 
97.007   1.39000000e+02 
96.971   1.45000000e+02 
96.935   1.54000000e+02 
96.899   1.58000000e+02 
96.863   1.84000000e+02 
96.827   1.74000000e+02 
96.791   1.83000000e+02 
96.755   1.38000000e+02 
96.720   1.87000000e+02 
96.684   1.71000000e+02 
96.648   2.08000000e+02 
96.612   1.77000000e+02 
96.576   2.04000000e+02 
96.540   1.85000000e+02 
96.504   2.23000000e+02 
96.468   2.14000000e+02 
96.432   2.00000000e+02 
96.396   2.68000000e+02 
96.360   2.44000000e+02 
96.324   2.53000000e+02 
96.288   2.56000000e+02 
96.252   2.77000000e+02 
96.216   2.78000000e+02 
96.180   2.88000000e+02 
96.145   3.09000000e+02 
96.109   2.86000000e+02 
96.073   3.30000000e+02 
96.037   3.65000000e+02 
96.001   3.59000000e+02 
95.965   3.47000000e+02 
95.929   3.98000000e+02 
95.893   3.89000000e+02 
95.857   4.31000000e+02 
95.821   4.17000000e+02 
95.785   4.03000000e+02 
95.749   4.69000000e+02 
95.713   5.34000000e+02 
95.677   5.18000000e+02 
95.641   5.59000000e+02 
95.605   5.77000000e+02 
95.570   5.60000000e+02 
95.534   6.18000000e+02 
95.498   6.56000000e+02 
95.462   6.68000000e+02 
95.426   6.36000000e+02 
95.390   6.72000000e+02 
95.354   6.87000000e+02 
95.318   7.40000000e+02 
95.282   7.11000000e+02 
95.246   7.34000000e+02 
95.210   7.42000000e+02 
95.174   7.72000000e+02 
95.138   7.38000000e+02 
95.102   6.53000000e+02 
95.066   6.71000000e+02 
95.030   6.41000000e+02 
94.995   5.99000000e+02 
94.959   6.21000000e+02 
94.923   5.82000000e+02 
94.887   5.69000000e+02 
94.851   4.89000000e+02 
94.815   4.39000000e+02 
94.779   3.95000000e+02 
94.743   3.70000000e+02 
94.707   2.95000000e+02 
94.671   3.39000000e+02 
94.635   2.82000000e+02 
94.599   2.56000000e+02 
94.563   2.08000000e+02 
94.527   2.47000000e+02 
94.491   2.14000000e+02 
94.455   2.20000000e+02 
94.420   1.88000000e+02 
94.384   1.84000000e+02 
94.348   2.13000000e+02 
94.312   1.70000000e+02 
94.276   1.76000000e+02 
94.240   1.70000000e+02 
94.204   1.73000000e+02 
94.168   1.77000000e+02 
94.132   1.60000000e+02 
94.096   1.41000000e+02 
94.060   1.39000000e+02 
94.024   1.54000000e+02 
93.988   1.48000000e+02 
93.952   1.59000000e+02 
93.916   1.30000000e+02 
93.880   1.33000000e+02 
93.845   1.44000000e+02 
93.809   1.39000000e+02 
93.773   1.74000000e+02 
93.737   1.17000000e+02 
93.701   1.35000000e+02 
93.665   1.33000000e+02 
93.629   1.35000000e+02 
93.593   1.43000000e+02 
93.557   1.24000000e+02 
93.521   1.32000000e+02 
93.485   1.16000000e+02 
93.449   1.29000000e+02 
93.413   1.42000000e+02 
93.377   1.57000000e+02 
93.341   1.51000000e+02 
93.305   1.57000000e+02 
93.270   1.43000000e+02 
93.234   1.69000000e+02 
93.198   1.63000000e+02 
93.162   1.87000000e+02 
93.126   1.71000000e+02 
93.090   1.50000000e+02 
93.054   1.70000000e+02 
93.018   1.63000000e+02 
92.982   1.78000000e+02 
92.946   1.79000000e+02 
92.910   1.98000000e+02 
92.874   2.09000000e+02 
92.838   1.86000000e+02 
92.802   2.13000000e+02 
92.766   2.22000000e+02 
92.730   2.10000000e+02 
92.695   2.34000000e+02 
92.659   2.54000000e+02 
92.623   2.64000000e+02 
92.587   2.63000000e+02 
92.551   2.73000000e+02 
92.515   3.15000000e+02 
92.479   3.24000000e+02 
92.443   3.45000000e+02 
92.407   3.45000000e+02 
92.371   3.97000000e+02 
92.335   3.99000000e+02 
92.299   4.19000000e+02 
92.263   4.27000000e+02 
92.227   4.27000000e+02 
92.191   4.74000000e+02 
92.155   5.23000000e+02 
92.120   5.11000000e+02 
92.084   5.50000000e+02 
92.048   5.70000000e+02 
92.012   5.94000000e+02 
91.976   6.15000000e+02 
91.940   6.91000000e+02 
91.904   6.62000000e+02 
91.868   7.38000000e+02 
91.832   7.56000000e+02 
91.796   8.28000000e+02 
91.760   8.41000000e+02 
91.724   8.21000000e+02 
91.688   7.89000000e+02 
91.652   8.37000000e+02 
91.616   8.80000000e+02 
91.580   8.61000000e+02 
91.545   8.68000000e+02 
91.509   8.52000000e+02 
91.473   8.73000000e+02 
91.437   8.69000000e+02 
91.401   7.76000000e+02 
91.365   8.07000000e+02 
91.329   7.53000000e+02 
91.293   6.84000000e+02 
91.257   6.41000000e+02 
91.221   6.20000000e+02 
91.185   5.65000000e+02 
91.149   4.80000000e+02 
91.113   4.37000000e+02 
91.077   4.00000000e+02 
91.041   3.31000000e+02 
91.005   3.43000000e+02 
90.970   3.22000000e+02 
90.934   2.38000000e+02 
90.898   2.42000000e+02 
90.862   1.95000000e+02 
90.826   1.74000000e+02 
90.790   1.84000000e+02 
90.754   1.65000000e+02 
90.718   1.51000000e+02 
90.682   1.39000000e+02 
90.646   1.22000000e+02 
90.610   1.26000000e+02 
90.574   1.12000000e+02 
90.538   1.24000000e+02 
90.502   1.14000000e+02 
90.466   9.80000000e+01 
90.430   9.40000000e+01 
90.395   1.10000000e+02 
90.359   1.23000000e+02 
90.323   1.18000000e+02 
90.287   9.00000000e+01 
90.251   1.01000000e+02 
90.215   8.80000000e+01 
90.179   9.20000000e+01 
90.143   8.10000000e+01 
90.107   8.20000000e+01 
90.071   7.30000000e+01 
90.035   8.60000000e+01 
89.999   7.20000000e+01 
89.963   8.20000000e+01 
89.927   8.90000000e+01 
89.891   6.70000000e+01 
89.855   7.20000000e+01 
89.820   7.40000000e+01 
89.784   6.70000000e+01 
89.748   6.80000000e+01 
89.712   7.60000000e+01 
89.676   7.60000000e+01 
89.640   6.70000000e+01 
89.604   7.30000000e+01 
89.568   6.20000000e+01 
89.532   8.10000000e+01 
89.496   6.80000000e+01 
89.460   7.20000000e+01 
89.424   6.50000000e+01 
89.388   7.00000000e+01 
89.352   6.70000000e+01 
89.316   6.90000000e+01 
89.280   7.10000000e+01 
89.245   6.10000000e+01 
89.209   6.90000000e+01 
89.173   6.10000000e+01 
89.137   7.60000000e+01 
89.101   6.20000000e+01 
89.065   5.40000000e+01 
89.029   5.50000000e+01 
88.993   7.50000000e+01 
88.957   6.40000000e+01 
88.921   5.90000000e+01 
88.885   6.00000000e+01 
88.849   5.80000000e+01 
88.813   6.60000000e+01 
88.777   5.80000000e+01 
88.741   5.10000000e+01 
88.705   6.40000000e+01 
88.670   6.70000000e+01 
88.634   6.30000000e+01 
88.598   5.40000000e+01 
88.562   6.50000000e+01 
88.526   6.50000000e+01 
88.490   6.70000000e+01 
88.454   5.70000000e+01 
88.418   6.00000000e+01 
88.382   5.80000000e+01 
88.346   6.80000000e+01 
88.310   5.20000000e+01 
88.274   6.80000000e+01 
88.238   4.80000000e+01 
88.202   6.00000000e+01 
88.166   7.40000000e+01 
88.130   6.00000000e+01 
88.095   5.60000000e+01 
88.059   6.40000000e+01 
88.023   6.10000000e+01 

