EXPERIMENT FILE
Version = 2

[ Experiment Parameters ]
Experiment Description= <none> 
Number_of_Regions_in_Experiment= 1 

Original_File_name= C:\alexesca\data\10252012_Au _4f_56nuetral+14_Mono225.xps 
Instrument= HP ESCA West
Date= 10-26-2012
Time=  14:36:40

[ Layer Parameters ]
Layer_Type= XPS

[ Region 1 Parameters ]
Region_Description = Au 4f Dithered Scan                
BEcenter(eV) = 93.000000
BEwidth(eV) = 10.000000
BEstep(eV) = 0.035937
Dwell_Time(sec) = 1.000000
N_o_scans = 1  
N_o_Channels = 278  
Scan_mode = 0  (DITHERED)

[ L= 1 R= 1 ]
BEcenter= 93.000  
BEwidth= -9.955  
Excitation= 1486.600
Time_p_channel= 256.000 
Size= 278
97.977   5.51000000e+02 
97.941   5.30000000e+02 
97.905   5.51000000e+02 
97.870   5.18000000e+02 
97.834   5.54000000e+02 
97.798   5.34000000e+02 
97.762   5.60000000e+02 
97.726   5.81000000e+02 
97.690   5.93000000e+02 
97.654   6.01000000e+02 
97.618   5.93000000e+02 
97.582   6.04000000e+02 
97.546   6.14000000e+02 
97.510   6.32000000e+02 
97.474   6.15000000e+02 
97.438   5.94000000e+02 
97.402   6.62000000e+02 
97.366   6.21000000e+02 
97.330   6.67000000e+02 
97.295   6.15000000e+02 
97.259   6.76000000e+02 
97.223   6.72000000e+02 
97.187   7.22000000e+02 
97.151   7.13000000e+02 
97.115   7.55000000e+02 
97.079   7.17000000e+02 
97.043   8.22000000e+02 
97.007   8.53000000e+02 
96.971   8.20000000e+02 
96.935   8.71000000e+02 
96.899   8.50000000e+02 
96.863   8.61000000e+02 
96.827   9.25000000e+02 
96.791   9.53000000e+02 
96.755   9.46000000e+02 
96.720   1.07800000e+03 
96.684   1.10100000e+03 
96.648   1.02000000e+03 
96.612   1.10700000e+03 
96.576   1.11600000e+03 
96.540   1.15400000e+03 
96.504   1.22800000e+03 
96.468   1.29200000e+03 
96.432   1.29600000e+03 
96.396   1.39600000e+03 
96.360   1.43100000e+03 
96.324   1.41900000e+03 
96.288   1.51200000e+03 
96.252   1.53800000e+03 
96.216   1.57400000e+03 
96.180   1.65300000e+03 
96.145   1.66000000e+03 
96.109   1.81900000e+03 
96.073   1.77200000e+03 
96.037   1.83000000e+03 
96.001   1.84600000e+03 
95.965   1.95200000e+03 
95.929   2.04300000e+03 
95.893   1.97800000e+03 
95.857   2.04600000e+03 
95.821   2.04100000e+03 
95.785   2.06000000e+03 
95.749   2.16600000e+03 
95.713   2.21100000e+03 
95.677   2.21700000e+03 
95.641   2.24500000e+03 
95.605   2.19600000e+03 
95.570   2.28300000e+03 
95.534   2.35700000e+03 
95.498   2.42400000e+03 
95.462   2.41400000e+03 
95.426   2.31600000e+03 
95.390   2.31300000e+03 
95.354   2.41000000e+03 
95.318   2.34400000e+03 
95.282   2.33800000e+03 
95.246   2.33400000e+03 
95.210   2.30500000e+03 
95.174   2.39500000e+03 
95.138   2.32300000e+03 
95.102   2.29400000e+03 
95.066   2.17100000e+03 
95.030   2.25300000e+03 
94.995   2.04800000e+03 
94.959   2.05200000e+03 
94.923   1.95500000e+03 
94.887   1.91500000e+03 
94.851   1.86200000e+03 
94.815   1.79000000e+03 
94.779   1.67000000e+03 
94.743   1.62300000e+03 
94.707   1.57600000e+03 
94.671   1.47100000e+03 
94.635   1.39400000e+03 
94.599   1.32400000e+03 
94.563   1.26500000e+03 
94.527   1.19000000e+03 
94.491   1.09700000e+03 
94.455   1.02800000e+03 
94.420   9.23000000e+02 
94.384   9.30000000e+02 
94.348   8.93000000e+02 
94.312   8.66000000e+02 
94.276   8.10000000e+02 
94.240   8.48000000e+02 
94.204   7.17000000e+02 
94.168   7.28000000e+02 
94.132   6.82000000e+02 
94.096   7.21000000e+02 
94.060   6.56000000e+02 
94.024   5.76000000e+02 
93.988   6.46000000e+02 
93.952   6.44000000e+02 
93.916   6.44000000e+02 
93.880   6.64000000e+02 
93.845   6.58000000e+02 
93.809   6.44000000e+02 
93.773   6.32000000e+02 
93.737   6.78000000e+02 
93.701   7.11000000e+02 
93.665   6.70000000e+02 
93.629   7.02000000e+02 
93.593   6.97000000e+02 
93.557   6.89000000e+02 
93.521   7.34000000e+02 
93.485   7.85000000e+02 
93.449   7.63000000e+02 
93.413   8.32000000e+02 
93.377   8.24000000e+02 
93.341   8.50000000e+02 
93.305   8.93000000e+02 
93.270   8.82000000e+02 
93.234   9.06000000e+02 
93.198   9.40000000e+02 
93.162   9.79000000e+02 
93.126   1.03800000e+03 
93.090   1.08200000e+03 
93.054   1.14200000e+03 
93.018   1.13600000e+03 
92.982   1.17300000e+03 
92.946   1.19800000e+03 
92.910   1.28400000e+03 
92.874   1.33900000e+03 
92.838   1.35400000e+03 
92.802   1.46200000e+03 
92.766   1.47000000e+03 
92.730   1.60200000e+03 
92.695   1.57200000e+03 
92.659   1.66600000e+03 
92.623   1.73500000e+03 
92.587   1.83300000e+03 
92.551   1.85100000e+03 
92.515   1.92700000e+03 
92.479   1.91800000e+03 
92.443   2.04800000e+03 
92.407   2.03800000e+03 
92.371   2.21100000e+03 
92.335   2.20200000e+03 
92.299   2.34300000e+03 
92.263   2.30100000e+03 
92.227   2.37900000e+03 
92.191   2.35500000e+03 
92.155   2.47500000e+03 
92.120   2.50500000e+03 
92.084   2.56200000e+03 
92.048   2.56500000e+03 
92.012   2.63200000e+03 
91.976   2.72000000e+03 
91.940   2.72300000e+03 
91.904   2.72900000e+03 
91.868   2.78000000e+03 
91.832   2.77800000e+03 
91.796   2.69600000e+03 
91.760   2.81300000e+03 
91.724   2.79200000e+03 
91.688   2.80000000e+03 
91.652   2.88700000e+03 
91.616   2.77100000e+03 
91.580   2.74800000e+03 
91.545   2.68900000e+03 
91.509   2.69000000e+03 
91.473   2.58300000e+03 
91.437   2.52500000e+03 
91.401   2.51500000e+03 
91.365   2.45200000e+03 
91.329   2.50700000e+03 
91.293   2.32800000e+03 
91.257   2.28800000e+03 
91.221   2.16500000e+03 
91.185   2.08700000e+03 
91.149   1.92900000e+03 
91.113   1.84500000e+03 
91.077   1.74900000e+03 
91.041   1.72800000e+03 
91.005   1.61200000e+03 
90.970   1.43900000e+03 
90.934   1.42500000e+03 
90.898   1.26400000e+03 
90.862   1.21300000e+03 
90.826   1.08900000e+03 
90.790   9.99000000e+02 
90.754   9.42000000e+02 
90.718   7.84000000e+02 
90.682   7.45000000e+02 
90.646   7.17000000e+02 
90.610   6.45000000e+02 
90.574   6.03000000e+02 
90.538   5.62000000e+02 
90.502   4.89000000e+02 
90.466   4.95000000e+02 
90.430   4.61000000e+02 
90.395   4.32000000e+02 
90.359   4.05000000e+02 
90.323   3.82000000e+02 
90.287   3.79000000e+02 
90.251   3.17000000e+02 
90.215   3.53000000e+02 
90.179   3.05000000e+02 
90.143   3.30000000e+02 
90.107   2.99000000e+02 
90.071   3.14000000e+02 
90.035   3.30000000e+02 
89.999   3.04000000e+02 
89.963   2.89000000e+02 
89.927   2.69000000e+02 
89.891   2.83000000e+02 
89.855   2.80000000e+02 
89.820   2.79000000e+02 
89.784   2.57000000e+02 
89.748   2.49000000e+02 
89.712   2.45000000e+02 
89.676   2.36000000e+02 
89.640   2.48000000e+02 
89.604   2.29000000e+02 
89.568   2.61000000e+02 
89.532   2.27000000e+02 
89.496   2.17000000e+02 
89.460   2.41000000e+02 
89.424   2.32000000e+02 
89.388   2.23000000e+02 
89.352   2.28000000e+02 
89.316   1.93000000e+02 
89.280   2.20000000e+02 
89.245   1.95000000e+02 
89.209   2.32000000e+02 
89.173   2.27000000e+02 
89.137   2.13000000e+02 
89.101   2.40000000e+02 
89.065   2.01000000e+02 
89.029   2.07000000e+02 
88.993   2.07000000e+02 
88.957   2.14000000e+02 
88.921   2.01000000e+02 
88.885   2.28000000e+02 
88.849   1.91000000e+02 
88.813   2.07000000e+02 
88.777   1.80000000e+02 
88.741   2.11000000e+02 
88.705   1.96000000e+02 
88.670   2.03000000e+02 
88.634   1.90000000e+02 
88.598   1.91000000e+02 
88.562   1.85000000e+02 
88.526   1.95000000e+02 
88.490   1.88000000e+02 
88.454   2.05000000e+02 
88.418   2.15000000e+02 
88.382   1.97000000e+02 
88.346   1.85000000e+02 
88.310   1.83000000e+02 
88.274   1.63000000e+02 
88.238   1.86000000e+02 
88.202   2.14000000e+02 
88.166   1.78000000e+02 
88.130   1.72000000e+02 
88.095   2.08000000e+02 
88.059   1.95000000e+02 
88.023   1.95000000e+02 

