EXPERIMENT FILE
Version = 2

[ Experiment Parameters ]
Experiment Description= <none> 
Number_of_Regions_in_Experiment= 1 

Original_File_name= C:\alexesca\data\10252012_Au _4f_56nuetral-6_Mono219.xps 
Instrument= HP ESCA West
Date= 10-26-2012
Time=  15:15:59

[ Layer Parameters ]
Layer_Type= XPS

[ Region 1 Parameters ]
Region_Description = Au 4f Dithered Scan                
BEcenter(eV) = 93.000000
BEwidth(eV) = 10.000000
BEstep(eV) = 0.035937
Dwell_Time(sec) = 1.000000
N_o_scans = 1  
N_o_Channels = 278  
Scan_mode = 0  (DITHERED)

[ L= 1 R= 1 ]
BEcenter= 93.000  
BEwidth= -9.955  
Excitation= 1486.600
Time_p_channel= 256.000 
Size= 278
97.977   3.44000000e+02 
97.941   3.15000000e+02 
97.905   3.42000000e+02 
97.870   3.34000000e+02 
97.834   3.20000000e+02 
97.798   3.39000000e+02 
97.762   3.19000000e+02 
97.726   3.22000000e+02 
97.690   3.35000000e+02 
97.654   3.21000000e+02 
97.618   3.65000000e+02 
97.582   3.45000000e+02 
97.546   3.30000000e+02 
97.510   3.49000000e+02 
97.474   3.43000000e+02 
97.438   3.65000000e+02 
97.402   3.76000000e+02 
97.366   3.28000000e+02 
97.330   3.71000000e+02 
97.295   3.66000000e+02 
97.259   3.90000000e+02 
97.223   3.53000000e+02 
97.187   3.98000000e+02 
97.151   3.50000000e+02 
97.115   3.82000000e+02 
97.079   3.77000000e+02 
97.043   3.89000000e+02 
97.007   4.30000000e+02 
96.971   4.15000000e+02 
96.935   4.63000000e+02 
96.899   4.05000000e+02 
96.863   4.72000000e+02 
96.827   4.96000000e+02 
96.791   4.96000000e+02 
96.755   4.89000000e+02 
96.720   5.12000000e+02 
96.684   4.71000000e+02 
96.648   5.31000000e+02 
96.612   5.59000000e+02 
96.576   5.98000000e+02 
96.540   5.97000000e+02 
96.504   5.72000000e+02 
96.468   6.37000000e+02 
96.432   6.38000000e+02 
96.396   6.91000000e+02 
96.360   6.62000000e+02 
96.324   7.04000000e+02 
96.288   7.47000000e+02 
96.252   7.51000000e+02 
96.216   7.89000000e+02 
96.180   8.27000000e+02 
96.145   8.20000000e+02 
96.109   8.62000000e+02 
96.073   9.01000000e+02 
96.037   9.31000000e+02 
96.001   9.94000000e+02 
95.965   1.02100000e+03 
95.929   1.06000000e+03 
95.893   1.05000000e+03 
95.857   1.13600000e+03 
95.821   1.15600000e+03 
95.785   1.20800000e+03 
95.749   1.27600000e+03 
95.713   1.27100000e+03 
95.677   1.32600000e+03 
95.641   1.36900000e+03 
95.605   1.41000000e+03 
95.570   1.47300000e+03 
95.534   1.44200000e+03 
95.498   1.48700000e+03 
95.462   1.55600000e+03 
95.426   1.60600000e+03 
95.390   1.59300000e+03 
95.354   1.57900000e+03 
95.318   1.63800000e+03 
95.282   1.66900000e+03 
95.246   1.68800000e+03 
95.210   1.68600000e+03 
95.174   1.68200000e+03 
95.138   1.66700000e+03 
95.102   1.68100000e+03 
95.066   1.55500000e+03 
95.030   1.60300000e+03 
94.995   1.55400000e+03 
94.959   1.57000000e+03 
94.923   1.43200000e+03 
94.887   1.37000000e+03 
94.851   1.34200000e+03 
94.815   1.23800000e+03 
94.779   1.09200000e+03 
94.743   9.99000000e+02 
94.707   9.96000000e+02 
94.671   9.12000000e+02 
94.635   8.51000000e+02 
94.599   7.76000000e+02 
94.563   7.68000000e+02 
94.527   7.10000000e+02 
94.491   6.00000000e+02 
94.455   5.74000000e+02 
94.420   6.10000000e+02 
94.384   5.27000000e+02 
94.348   5.11000000e+02 
94.312   4.74000000e+02 
94.276   4.46000000e+02 
94.240   3.98000000e+02 
94.204   4.40000000e+02 
94.168   3.85000000e+02 
94.132   4.02000000e+02 
94.096   3.55000000e+02 
94.060   3.51000000e+02 
94.024   3.60000000e+02 
93.988   4.20000000e+02 
93.952   3.97000000e+02 
93.916   3.45000000e+02 
93.880   3.49000000e+02 
93.845   3.48000000e+02 
93.809   3.40000000e+02 
93.773   3.92000000e+02 
93.737   3.92000000e+02 
93.701   3.84000000e+02 
93.665   3.39000000e+02 
93.629   3.69000000e+02 
93.593   3.87000000e+02 
93.557   3.99000000e+02 
93.521   3.83000000e+02 
93.485   3.63000000e+02 
93.449   3.70000000e+02 
93.413   3.96000000e+02 
93.377   4.24000000e+02 
93.341   4.36000000e+02 
93.305   4.30000000e+02 
93.270   4.36000000e+02 
93.234   4.21000000e+02 
93.198   4.35000000e+02 
93.162   4.37000000e+02 
93.126   4.59000000e+02 
93.090   4.82000000e+02 
93.054   5.21000000e+02 
93.018   5.35000000e+02 
92.982   5.34000000e+02 
92.946   5.57000000e+02 
92.910   5.86000000e+02 
92.874   6.30000000e+02 
92.838   6.08000000e+02 
92.802   6.62000000e+02 
92.766   6.10000000e+02 
92.730   7.52000000e+02 
92.695   7.15000000e+02 
92.659   7.61000000e+02 
92.623   8.01000000e+02 
92.587   8.36000000e+02 
92.551   8.81000000e+02 
92.515   8.80000000e+02 
92.479   9.49000000e+02 
92.443   9.97000000e+02 
92.407   1.02300000e+03 
92.371   1.05700000e+03 
92.335   1.11800000e+03 
92.299   1.16400000e+03 
92.263   1.21100000e+03 
92.227   1.27300000e+03 
92.191   1.34400000e+03 
92.155   1.34100000e+03 
92.120   1.36900000e+03 
92.084   1.42600000e+03 
92.048   1.51600000e+03 
92.012   1.57200000e+03 
91.976   1.57400000e+03 
91.940   1.57700000e+03 
91.904   1.71600000e+03 
91.868   1.78500000e+03 
91.832   1.81000000e+03 
91.796   1.84700000e+03 
91.760   1.83800000e+03 
91.724   1.97400000e+03 
91.688   2.00300000e+03 
91.652   2.03800000e+03 
91.616   2.03800000e+03 
91.580   2.01400000e+03 
91.545   2.10200000e+03 
91.509   2.03500000e+03 
91.473   2.02400000e+03 
91.437   1.98600000e+03 
91.401   2.06900000e+03 
91.365   1.94300000e+03 
91.329   1.87000000e+03 
91.293   1.71400000e+03 
91.257   1.74800000e+03 
91.221   1.50500000e+03 
91.185   1.52600000e+03 
91.149   1.36300000e+03 
91.113   1.23200000e+03 
91.077   1.13300000e+03 
91.041   1.07200000e+03 
91.005   9.79000000e+02 
90.970   8.77000000e+02 
90.934   7.81000000e+02 
90.898   6.92000000e+02 
90.862   6.68000000e+02 
90.826   5.85000000e+02 
90.790   5.14000000e+02 
90.754   5.06000000e+02 
90.718   4.50000000e+02 
90.682   4.18000000e+02 
90.646   3.72000000e+02 
90.610   3.58000000e+02 
90.574   3.42000000e+02 
90.538   3.45000000e+02 
90.502   3.19000000e+02 
90.466   2.61000000e+02 
90.430   2.91000000e+02 
90.395   2.51000000e+02 
90.359   2.47000000e+02 
90.323   2.29000000e+02 
90.287   2.50000000e+02 
90.251   2.22000000e+02 
90.215   2.04000000e+02 
90.179   2.04000000e+02 
90.143   2.27000000e+02 
90.107   2.16000000e+02 
90.071   2.02000000e+02 
90.035   1.98000000e+02 
89.999   2.03000000e+02 
89.963   1.74000000e+02 
89.927   1.90000000e+02 
89.891   1.98000000e+02 
89.855   1.84000000e+02 
89.820   1.72000000e+02 
89.784   1.74000000e+02 
89.748   1.61000000e+02 
89.712   1.80000000e+02 
89.676   1.64000000e+02 
89.640   1.65000000e+02 
89.604   1.64000000e+02 
89.568   1.58000000e+02 
89.532   1.46000000e+02 
89.496   1.34000000e+02 
89.460   1.52000000e+02 
89.424   1.36000000e+02 
89.388   1.46000000e+02 
89.352   1.30000000e+02 
89.316   1.44000000e+02 
89.280   1.33000000e+02 
89.245   1.64000000e+02 
89.209   1.29000000e+02 
89.173   1.44000000e+02 
89.137   1.56000000e+02 
89.101   1.22000000e+02 
89.065   1.56000000e+02 
89.029   1.14000000e+02 
88.993   1.37000000e+02 
88.957   1.27000000e+02 
88.921   1.40000000e+02 
88.885   1.32000000e+02 
88.849   1.28000000e+02 
88.813   1.26000000e+02 
88.777   1.42000000e+02 
88.741   1.44000000e+02 
88.705   1.41000000e+02 
88.670   1.37000000e+02 
88.634   1.46000000e+02 
88.598   1.15000000e+02 
88.562   1.21000000e+02 
88.526   1.34000000e+02 
88.490   1.38000000e+02 
88.454   1.45000000e+02 
88.418   1.13000000e+02 
88.382   1.12000000e+02 
88.346   1.13000000e+02 
88.310   1.14000000e+02 
88.274   1.18000000e+02 
88.238   1.36000000e+02 
88.202   1.45000000e+02 
88.166   1.33000000e+02 
88.130   1.31000000e+02 
88.095   1.29000000e+02 
88.059   1.32000000e+02 
88.023   1.28000000e+02 

