EXPERIMENT FILE
Version = 2

[ Experiment Parameters ]
Experiment Description= <none> 
Number_of_Regions_in_Experiment= 1 

Original_File_name= C:\alexesca\data\10262012_Au _4f_56nuetral-26_Mono219_800W.xps 
Instrument= HP ESCA West
Date= 10-26-2012
Time=  17:57:04

[ Layer Parameters ]
Layer_Type= XPS

[ Region 1 Parameters ]
Region_Description = Au 4f Dithered Scan                
BEcenter(eV) = 93.000000
BEwidth(eV) = 10.000000
BEstep(eV) = 0.035937
Dwell_Time(sec) = 1.000000
N_o_scans = 1  
N_o_Channels = 278  
Scan_mode = 0  (DITHERED)

[ L= 1 R= 1 ]
BEcenter= 93.000  
BEwidth= -9.955  
Excitation= 1486.600
Time_p_channel= 256.000 
Size= 278
97.977   2.50000000e+02 
97.941   2.57000000e+02 
97.905   2.64000000e+02 
97.870   2.77000000e+02 
97.834   2.73000000e+02 
97.798   2.95000000e+02 
97.762   2.66000000e+02 
97.726   2.69000000e+02 
97.690   2.53000000e+02 
97.654   2.79000000e+02 
97.618   2.84000000e+02 
97.582   3.25000000e+02 
97.546   2.64000000e+02 
97.510   2.81000000e+02 
97.474   2.97000000e+02 
97.438   2.96000000e+02 
97.402   2.74000000e+02 
97.366   2.92000000e+02 
97.330   3.02000000e+02 
97.295   2.94000000e+02 
97.259   2.83000000e+02 
97.223   3.07000000e+02 
97.187   2.91000000e+02 
97.151   2.74000000e+02 
97.115   3.03000000e+02 
97.079   3.26000000e+02 
97.043   2.93000000e+02 
97.007   3.34000000e+02 
96.971   3.38000000e+02 
96.935   3.24000000e+02 
96.899   3.06000000e+02 
96.863   3.54000000e+02 
96.827   3.21000000e+02 
96.791   3.32000000e+02 
96.755   3.42000000e+02 
96.720   3.94000000e+02 
96.684   3.57000000e+02 
96.648   3.80000000e+02 
96.612   4.07000000e+02 
96.576   4.25000000e+02 
96.540   4.12000000e+02 
96.504   4.01000000e+02 
96.468   4.16000000e+02 
96.432   3.96000000e+02 
96.396   4.70000000e+02 
96.360   4.80000000e+02 
96.324   4.90000000e+02 
96.288   4.83000000e+02 
96.252   5.46000000e+02 
96.216   5.39000000e+02 
96.180   5.23000000e+02 
96.145   5.86000000e+02 
96.109   5.90000000e+02 
96.073   6.18000000e+02 
96.037   6.87000000e+02 
96.001   7.05000000e+02 
95.965   7.49000000e+02 
95.929   7.91000000e+02 
95.893   8.21000000e+02 
95.857   8.27000000e+02 
95.821   8.72000000e+02 
95.785   9.71000000e+02 
95.749   9.18000000e+02 
95.713   1.01100000e+03 
95.677   1.05800000e+03 
95.641   1.08600000e+03 
95.605   1.10500000e+03 
95.570   1.15400000e+03 
95.534   1.21600000e+03 
95.498   1.24500000e+03 
95.462   1.25600000e+03 
95.426   1.37000000e+03 
95.390   1.38900000e+03 
95.354   1.45200000e+03 
95.318   1.42900000e+03 
95.282   1.51000000e+03 
95.246   1.52700000e+03 
95.210   1.52900000e+03 
95.174   1.48200000e+03 
95.138   1.47200000e+03 
95.102   1.46500000e+03 
95.066   1.40000000e+03 
95.030   1.39200000e+03 
94.995   1.30500000e+03 
94.959   1.27600000e+03 
94.923   1.17000000e+03 
94.887   1.11100000e+03 
94.851   1.02400000e+03 
94.815   9.04000000e+02 
94.779   8.48000000e+02 
94.743   7.63000000e+02 
94.707   7.42000000e+02 
94.671   6.87000000e+02 
94.635   5.93000000e+02 
94.599   5.55000000e+02 
94.563   5.49000000e+02 
94.527   5.20000000e+02 
94.491   4.96000000e+02 
94.455   4.37000000e+02 
94.420   4.21000000e+02 
94.384   4.05000000e+02 
94.348   3.57000000e+02 
94.312   3.70000000e+02 
94.276   3.48000000e+02 
94.240   3.74000000e+02 
94.204   3.10000000e+02 
94.168   3.31000000e+02 
94.132   2.97000000e+02 
94.096   3.23000000e+02 
94.060   3.45000000e+02 
94.024   3.13000000e+02 
93.988   3.07000000e+02 
93.952   2.78000000e+02 
93.916   3.01000000e+02 
93.880   2.91000000e+02 
93.845   2.80000000e+02 
93.809   2.82000000e+02 
93.773   2.51000000e+02 
93.737   2.82000000e+02 
93.701   2.89000000e+02 
93.665   3.00000000e+02 
93.629   2.69000000e+02 
93.593   3.23000000e+02 
93.557   2.88000000e+02 
93.521   2.70000000e+02 
93.485   2.55000000e+02 
93.449   2.77000000e+02 
93.413   2.82000000e+02 
93.377   2.86000000e+02 
93.341   2.88000000e+02 
93.305   2.94000000e+02 
93.270   3.49000000e+02 
93.234   2.99000000e+02 
93.198   3.70000000e+02 
93.162   3.21000000e+02 
93.126   3.67000000e+02 
93.090   3.42000000e+02 
93.054   3.37000000e+02 
93.018   3.38000000e+02 
92.982   3.56000000e+02 
92.946   3.69000000e+02 
92.910   3.98000000e+02 
92.874   4.19000000e+02 
92.838   4.29000000e+02 
92.802   4.35000000e+02 
92.766   4.07000000e+02 
92.730   4.64000000e+02 
92.695   4.50000000e+02 
92.659   4.80000000e+02 
92.623   4.85000000e+02 
92.587   5.08000000e+02 
92.551   5.71000000e+02 
92.515   5.97000000e+02 
92.479   6.51000000e+02 
92.443   6.85000000e+02 
92.407   6.59000000e+02 
92.371   6.85000000e+02 
92.335   7.63000000e+02 
92.299   8.05000000e+02 
92.263   8.65000000e+02 
92.227   8.76000000e+02 
92.191   9.31000000e+02 
92.155   9.72000000e+02 
92.120   1.00000000e+03 
92.084   1.06900000e+03 
92.048   1.15500000e+03 
92.012   1.24000000e+03 
91.976   1.29700000e+03 
91.940   1.34700000e+03 
91.904   1.42700000e+03 
91.868   1.50400000e+03 
91.832   1.54400000e+03 
91.796   1.56300000e+03 
91.760   1.65100000e+03 
91.724   1.58400000e+03 
91.688   1.67100000e+03 
91.652   1.75300000e+03 
91.616   1.79300000e+03 
91.580   1.78100000e+03 
91.545   1.83000000e+03 
91.509   1.83600000e+03 
91.473   1.86100000e+03 
91.437   1.85000000e+03 
91.401   1.69200000e+03 
91.365   1.71100000e+03 
91.329   1.58200000e+03 
91.293   1.53500000e+03 
91.257   1.33000000e+03 
91.221   1.21500000e+03 
91.185   1.19600000e+03 
91.149   1.01400000e+03 
91.113   9.20000000e+02 
91.077   8.28000000e+02 
91.041   7.99000000e+02 
91.005   6.03000000e+02 
90.970   6.03000000e+02 
90.934   5.73000000e+02 
90.898   5.01000000e+02 
90.862   4.42000000e+02 
90.826   4.69000000e+02 
90.790   3.51000000e+02 
90.754   3.50000000e+02 
90.718   3.24000000e+02 
90.682   3.21000000e+02 
90.646   2.72000000e+02 
90.610   2.57000000e+02 
90.574   2.26000000e+02 
90.538   2.60000000e+02 
90.502   2.36000000e+02 
90.466   2.32000000e+02 
90.430   2.27000000e+02 
90.395   2.07000000e+02 
90.359   2.02000000e+02 
90.323   1.76000000e+02 
90.287   2.08000000e+02 
90.251   1.94000000e+02 
90.215   1.88000000e+02 
90.179   1.66000000e+02 
90.143   1.86000000e+02 
90.107   1.63000000e+02 
90.071   1.73000000e+02 
90.035   1.51000000e+02 
89.999   1.62000000e+02 
89.963   1.63000000e+02 
89.927   1.71000000e+02 
89.891   1.53000000e+02 
89.855   1.79000000e+02 
89.820   1.45000000e+02 
89.784   1.65000000e+02 
89.748   1.52000000e+02 
89.712   1.38000000e+02 
89.676   1.48000000e+02 
89.640   1.46000000e+02 
89.604   1.37000000e+02 
89.568   1.45000000e+02 
89.532   1.43000000e+02 
89.496   1.42000000e+02 
89.460   1.59000000e+02 
89.424   1.28000000e+02 
89.388   1.43000000e+02 
89.352   1.37000000e+02 
89.316   1.50000000e+02 
89.280   1.59000000e+02 
89.245   1.41000000e+02 
89.209   1.42000000e+02 
89.173   1.41000000e+02 
89.137   1.45000000e+02 
89.101   1.32000000e+02 
89.065   1.21000000e+02 
89.029   1.41000000e+02 
88.993   1.28000000e+02 
88.957   1.33000000e+02 
88.921   1.48000000e+02 
88.885   1.23000000e+02 
88.849   1.25000000e+02 
88.813   1.20000000e+02 
88.777   1.29000000e+02 
88.741   1.22000000e+02 
88.705   1.23000000e+02 
88.670   1.14000000e+02 
88.634   1.52000000e+02 
88.598   1.11000000e+02 
88.562   1.16000000e+02 
88.526   1.28000000e+02 
88.490   1.32000000e+02 
88.454   1.30000000e+02 
88.418   1.11000000e+02 
88.382   1.43000000e+02 
88.346   1.20000000e+02 
88.310   1.18000000e+02 
88.274   1.18000000e+02 
88.238   1.20000000e+02 
88.202   1.03000000e+02 
88.166   1.19000000e+02 
88.130   1.24000000e+02 
88.095   1.31000000e+02 
88.059   1.09000000e+02 
88.023   1.01000000e+02 

