EXPERIMENT FILE
Version = 2

[ Experiment Parameters ]
Experiment Description= <none> 
Number_of_Regions_in_Experiment= 1 

Original_File_name= C:\alexesca\data\10262012_Au _4f_56nuetral+39_Mono219.xps 
Instrument= HP ESCA West
Date= 10-26-2012
Time=  17:36:02

[ Layer Parameters ]
Layer_Type= XPS

[ Region 1 Parameters ]
Region_Description = Au 4f Dithered Scan                
BEcenter(eV) = 93.000000
BEwidth(eV) = 10.000000
BEstep(eV) = 0.035937
Dwell_Time(sec) = 1.000000
N_o_scans = 1  
N_o_Channels = 278  
Scan_mode = 0  (DITHERED)

[ L= 1 R= 1 ]
BEcenter= 93.000  
BEwidth= -9.955  
Excitation= 1486.600
Time_p_channel= 256.000 
Size= 278
97.977   6.41000000e+02 
97.941   6.38000000e+02 
97.905   6.82000000e+02 
97.870   6.51000000e+02 
97.834   6.34000000e+02 
97.798   6.73000000e+02 
97.762   6.62000000e+02 
97.726   6.55000000e+02 
97.690   6.97000000e+02 
97.654   7.17000000e+02 
97.618   6.98000000e+02 
97.582   6.79000000e+02 
97.546   7.12000000e+02 
97.510   7.56000000e+02 
97.474   7.67000000e+02 
97.438   7.44000000e+02 
97.402   7.27000000e+02 
97.366   8.43000000e+02 
97.330   8.05000000e+02 
97.295   7.84000000e+02 
97.259   8.74000000e+02 
97.223   8.29000000e+02 
97.187   8.35000000e+02 
97.151   9.28000000e+02 
97.115   8.93000000e+02 
97.079   9.52000000e+02 
97.043   9.74000000e+02 
97.007   1.09000000e+03 
96.971   1.03300000e+03 
96.935   1.10400000e+03 
96.899   1.11700000e+03 
96.863   1.12800000e+03 
96.827   1.17000000e+03 
96.791   1.16800000e+03 
96.755   1.25800000e+03 
96.720   1.31700000e+03 
96.684   1.35500000e+03 
96.648   1.44900000e+03 
96.612   1.41700000e+03 
96.576   1.52400000e+03 
96.540   1.55600000e+03 
96.504   1.59000000e+03 
96.468   1.57000000e+03 
96.432   1.62300000e+03 
96.396   1.67400000e+03 
96.360   1.75000000e+03 
96.324   1.76300000e+03 
96.288   1.79200000e+03 
96.252   1.81300000e+03 
96.216   1.92000000e+03 
96.180   1.95800000e+03 
96.145   1.96800000e+03 
96.109   2.02400000e+03 
96.073   2.06200000e+03 
96.037   1.99100000e+03 
96.001   2.06700000e+03 
95.965   2.11300000e+03 
95.929   2.20900000e+03 
95.893   2.20200000e+03 
95.857   2.15000000e+03 
95.821   2.26100000e+03 
95.785   2.30400000e+03 
95.749   2.27100000e+03 
95.713   2.18800000e+03 
95.677   2.22900000e+03 
95.641   2.36300000e+03 
95.605   2.32700000e+03 
95.570   2.27200000e+03 
95.534   2.39000000e+03 
95.498   2.29700000e+03 
95.462   2.33800000e+03 
95.426   2.38400000e+03 
95.390   2.35700000e+03 
95.354   2.38900000e+03 
95.318   2.37400000e+03 
95.282   2.32100000e+03 
95.246   2.38800000e+03 
95.210   2.28800000e+03 
95.174   2.47600000e+03 
95.138   2.41200000e+03 
95.102   2.38100000e+03 
95.066   2.30200000e+03 
95.030   2.45300000e+03 
94.995   2.30800000e+03 
94.959   2.28100000e+03 
94.923   2.30200000e+03 
94.887   2.28500000e+03 
94.851   2.30100000e+03 
94.815   2.26100000e+03 
94.779   2.23900000e+03 
94.743   2.30000000e+03 
94.707   2.10600000e+03 
94.671   2.18100000e+03 
94.635   2.04700000e+03 
94.599   2.06700000e+03 
94.563   2.07500000e+03 
94.527   1.95300000e+03 
94.491   1.88700000e+03 
94.455   1.88500000e+03 
94.420   1.85300000e+03 
94.384   1.80000000e+03 
94.348   1.67100000e+03 
94.312   1.61200000e+03 
94.276   1.50600000e+03 
94.240   1.47700000e+03 
94.204   1.41600000e+03 
94.168   1.31300000e+03 
94.132   1.24900000e+03 
94.096   1.16300000e+03 
94.060   1.11600000e+03 
94.024   1.09500000e+03 
93.988   1.01500000e+03 
93.952   9.62000000e+02 
93.916   9.85000000e+02 
93.880   8.82000000e+02 
93.845   8.73000000e+02 
93.809   8.86000000e+02 
93.773   8.57000000e+02 
93.737   8.81000000e+02 
93.701   9.30000000e+02 
93.665   9.28000000e+02 
93.629   9.06000000e+02 
93.593   9.34000000e+02 
93.557   9.86000000e+02 
93.521   9.65000000e+02 
93.485   1.03000000e+03 
93.449   1.04400000e+03 
93.413   1.05900000e+03 
93.377   1.07600000e+03 
93.341   1.12500000e+03 
93.305   1.12700000e+03 
93.270   1.17000000e+03 
93.234   1.14100000e+03 
93.198   1.23400000e+03 
93.162   1.27000000e+03 
93.126   1.35000000e+03 
93.090   1.39600000e+03 
93.054   1.48700000e+03 
93.018   1.46500000e+03 
92.982   1.61600000e+03 
92.946   1.65700000e+03 
92.910   1.64000000e+03 
92.874   1.68800000e+03 
92.838   1.79300000e+03 
92.802   1.83000000e+03 
92.766   1.85500000e+03 
92.730   1.90000000e+03 
92.695   2.01000000e+03 
92.659   2.09400000e+03 
92.623   2.06500000e+03 
92.587   2.15900000e+03 
92.551   2.21600000e+03 
92.515   2.26000000e+03 
92.479   2.30400000e+03 
92.443   2.38500000e+03 
92.407   2.36200000e+03 
92.371   2.43800000e+03 
92.335   2.42400000e+03 
92.299   2.44700000e+03 
92.263   2.43100000e+03 
92.227   2.54800000e+03 
92.191   2.54400000e+03 
92.155   2.53300000e+03 
92.120   2.56600000e+03 
92.084   2.60700000e+03 
92.048   2.61600000e+03 
92.012   2.56000000e+03 
91.976   2.62900000e+03 
91.940   2.60600000e+03 
91.904   2.70100000e+03 
91.868   2.65200000e+03 
91.832   2.65600000e+03 
91.796   2.73800000e+03 
91.760   2.70000000e+03 
91.724   2.75700000e+03 
91.688   2.76300000e+03 
91.652   2.76300000e+03 
91.616   2.70500000e+03 
91.580   2.71500000e+03 
91.545   2.62000000e+03 
91.509   2.68800000e+03 
91.473   2.71600000e+03 
91.437   2.75100000e+03 
91.401   2.71400000e+03 
91.365   2.69200000e+03 
91.329   2.74300000e+03 
91.293   2.59100000e+03 
91.257   2.57900000e+03 
91.221   2.70500000e+03 
91.185   2.58100000e+03 
91.149   2.55800000e+03 
91.113   2.55000000e+03 
91.077   2.43900000e+03 
91.041   2.44700000e+03 
91.005   2.44900000e+03 
90.970   2.22400000e+03 
90.934   2.28800000e+03 
90.898   2.20900000e+03 
90.862   2.15400000e+03 
90.826   1.98200000e+03 
90.790   1.94000000e+03 
90.754   1.84900000e+03 
90.718   1.83200000e+03 
90.682   1.60600000e+03 
90.646   1.56700000e+03 
90.610   1.45800000e+03 
90.574   1.34900000e+03 
90.538   1.25100000e+03 
90.502   1.09400000e+03 
90.466   1.12400000e+03 
90.430   9.35000000e+02 
90.395   8.76000000e+02 
90.359   7.98000000e+02 
90.323   7.27000000e+02 
90.287   7.16000000e+02 
90.251   6.33000000e+02 
90.215   6.11000000e+02 
90.179   5.25000000e+02 
90.143   4.80000000e+02 
90.107   4.63000000e+02 
90.071   4.38000000e+02 
90.035   4.52000000e+02 
89.999   4.34000000e+02 
89.963   3.70000000e+02 
89.927   3.90000000e+02 
89.891   3.58000000e+02 
89.855   3.85000000e+02 
89.820   3.62000000e+02 
89.784   3.41000000e+02 
89.748   3.17000000e+02 
89.712   3.07000000e+02 
89.676   3.19000000e+02 
89.640   3.27000000e+02 
89.604   3.23000000e+02 
89.568   3.27000000e+02 
89.532   3.15000000e+02 
89.496   3.10000000e+02 
89.460   2.90000000e+02 
89.424   3.11000000e+02 
89.388   2.82000000e+02 
89.352   2.91000000e+02 
89.316   3.10000000e+02 
89.280   2.51000000e+02 
89.245   2.62000000e+02 
89.209   2.70000000e+02 
89.173   2.81000000e+02 
89.137   2.72000000e+02 
89.101   2.97000000e+02 
89.065   2.48000000e+02 
89.029   2.58000000e+02 
88.993   2.45000000e+02 
88.957   2.76000000e+02 
88.921   2.40000000e+02 
88.885   2.59000000e+02 
88.849   2.50000000e+02 
88.813   2.40000000e+02 
88.777   2.33000000e+02 
88.741   2.29000000e+02 
88.705   2.55000000e+02 
88.670   2.32000000e+02 
88.634   2.43000000e+02 
88.598   2.32000000e+02 
88.562   2.27000000e+02 
88.526   2.48000000e+02 
88.490   2.23000000e+02 
88.454   2.32000000e+02 
88.418   2.41000000e+02 
88.382   2.49000000e+02 
88.346   2.17000000e+02 
88.310   2.27000000e+02 
88.274   2.30000000e+02 
88.238   2.30000000e+02 
88.202   2.14000000e+02 
88.166   2.24000000e+02 
88.130   2.34000000e+02 
88.095   2.11000000e+02 
88.059   2.21000000e+02 
88.023   2.27000000e+02 

