EXPERIMENT FILE
Version = 2

[ Experiment Parameters ]
Experiment Description= <none> 
Number_of_Regions_in_Experiment= 1 

Original_File_name= C:\alexesca\data\10302012_Au _4f_56nuetral-26_Mono300.xps 
Instrument= HP ESCA West
Date= 10-30-2012
Time=  18:32:23

[ Layer Parameters ]
Layer_Type= XPS

[ Region 1 Parameters ]
Region_Description = Au 4f Dithered Scan                
BEcenter(eV) = 93.000000
BEwidth(eV) = 10.000000
BEstep(eV) = 0.035937
Dwell_Time(sec) = 1.000000
N_o_scans = 1  
N_o_Channels = 278  
Scan_mode = 0  (DITHERED)

[ L= 1 R= 1 ]
BEcenter= 93.000  
BEwidth= -9.955  
Excitation= 1486.600
Time_p_channel= 256.000 
Size= 278
97.977   3.35000000e+02 
97.941   3.14000000e+02 
97.905   3.31000000e+02 
97.870   3.35000000e+02 
97.834   3.48000000e+02 
97.798   3.57000000e+02 
97.762   3.57000000e+02 
97.726   3.52000000e+02 
97.690   3.65000000e+02 
97.654   3.92000000e+02 
97.618   3.51000000e+02 
97.582   3.82000000e+02 
97.546   3.73000000e+02 
97.510   4.21000000e+02 
97.474   4.20000000e+02 
97.438   4.18000000e+02 
97.402   4.82000000e+02 
97.366   4.75000000e+02 
97.330   5.07000000e+02 
97.295   4.67000000e+02 
97.259   5.56000000e+02 
97.223   5.45000000e+02 
97.187   5.32000000e+02 
97.151   5.84000000e+02 
97.115   5.90000000e+02 
97.079   6.08000000e+02 
97.043   6.43000000e+02 
97.007   6.69000000e+02 
96.971   6.81000000e+02 
96.935   6.94000000e+02 
96.899   7.56000000e+02 
96.863   7.84000000e+02 
96.827   8.04000000e+02 
96.791   8.42000000e+02 
96.755   8.92000000e+02 
96.720   8.67000000e+02 
96.684   9.02000000e+02 
96.648   9.35000000e+02 
96.612   9.94000000e+02 
96.576   1.03100000e+03 
96.540   1.08300000e+03 
96.504   1.09400000e+03 
96.468   1.12100000e+03 
96.432   1.23700000e+03 
96.396   1.18000000e+03 
96.360   1.22100000e+03 
96.324   1.23000000e+03 
96.288   1.28000000e+03 
96.252   1.33600000e+03 
96.216   1.31100000e+03 
96.180   1.31500000e+03 
96.145   1.40200000e+03 
96.109   1.40800000e+03 
96.073   1.42800000e+03 
96.037   1.40900000e+03 
96.001   1.39600000e+03 
95.965   1.37100000e+03 
95.929   1.40100000e+03 
95.893   1.47000000e+03 
95.857   1.37400000e+03 
95.821   1.42500000e+03 
95.785   1.29000000e+03 
95.749   1.31700000e+03 
95.713   1.25200000e+03 
95.677   1.25600000e+03 
95.641   1.10300000e+03 
95.605   1.04600000e+03 
95.570   9.78000000e+02 
95.534   9.28000000e+02 
95.498   8.58000000e+02 
95.462   8.21000000e+02 
95.426   6.85000000e+02 
95.390   6.53000000e+02 
95.354   6.42000000e+02 
95.318   6.70000000e+02 
95.282   5.47000000e+02 
95.246   5.24000000e+02 
95.210   4.99000000e+02 
95.174   4.95000000e+02 
95.138   4.56000000e+02 
95.102   4.23000000e+02 
95.066   4.29000000e+02 
95.030   3.81000000e+02 
94.995   3.82000000e+02 
94.959   3.44000000e+02 
94.923   3.80000000e+02 
94.887   3.31000000e+02 
94.851   3.03000000e+02 
94.815   3.45000000e+02 
94.779   3.23000000e+02 
94.743   3.04000000e+02 
94.707   3.32000000e+02 
94.671   2.92000000e+02 
94.635   3.25000000e+02 
94.599   3.13000000e+02 
94.563   3.31000000e+02 
94.527   3.03000000e+02 
94.491   3.13000000e+02 
94.455   3.12000000e+02 
94.420   3.08000000e+02 
94.384   3.39000000e+02 
94.348   3.20000000e+02 
94.312   3.44000000e+02 
94.276   3.43000000e+02 
94.240   3.14000000e+02 
94.204   3.55000000e+02 
94.168   3.47000000e+02 
94.132   3.38000000e+02 
94.096   3.67000000e+02 
94.060   3.52000000e+02 
94.024   3.71000000e+02 
93.988   4.20000000e+02 
93.952   3.87000000e+02 
93.916   3.86000000e+02 
93.880   3.93000000e+02 
93.845   4.06000000e+02 
93.809   4.29000000e+02 
93.773   4.56000000e+02 
93.737   5.06000000e+02 
93.701   4.59000000e+02 
93.665   5.27000000e+02 
93.629   5.25000000e+02 
93.593   5.36000000e+02 
93.557   5.81000000e+02 
93.521   5.64000000e+02 
93.485   6.49000000e+02 
93.449   6.97000000e+02 
93.413   6.67000000e+02 
93.377   7.21000000e+02 
93.341   7.07000000e+02 
93.305   8.04000000e+02 
93.270   7.94000000e+02 
93.234   7.75000000e+02 
93.198   9.12000000e+02 
93.162   9.21000000e+02 
93.126   9.73000000e+02 
93.090   1.03700000e+03 
93.054   1.02700000e+03 
93.018   1.07200000e+03 
92.982   1.08600000e+03 
92.946   1.12600000e+03 
92.910   1.20900000e+03 
92.874   1.26000000e+03 
92.838   1.21000000e+03 
92.802   1.31700000e+03 
92.766   1.33200000e+03 
92.730   1.33300000e+03 
92.695   1.42800000e+03 
92.659   1.43500000e+03 
92.623   1.51200000e+03 
92.587   1.51300000e+03 
92.551   1.57900000e+03 
92.515   1.64900000e+03 
92.479   1.58600000e+03 
92.443   1.65400000e+03 
92.407   1.64000000e+03 
92.371   1.63900000e+03 
92.335   1.69400000e+03 
92.299   1.73200000e+03 
92.263   1.60000000e+03 
92.227   1.68000000e+03 
92.191   1.65600000e+03 
92.155   1.63900000e+03 
92.120   1.59000000e+03 
92.084   1.49400000e+03 
92.048   1.41100000e+03 
92.012   1.44600000e+03 
91.976   1.24800000e+03 
91.940   1.25000000e+03 
91.904   1.21400000e+03 
91.868   1.06500000e+03 
91.832   9.52000000e+02 
91.796   9.16000000e+02 
91.760   7.64000000e+02 
91.724   7.47000000e+02 
91.688   6.90000000e+02 
91.652   6.47000000e+02 
91.616   5.72000000e+02 
91.580   4.93000000e+02 
91.545   4.57000000e+02 
91.509   4.46000000e+02 
91.473   4.01000000e+02 
91.437   3.69000000e+02 
91.401   3.74000000e+02 
91.365   3.03000000e+02 
91.329   3.07000000e+02 
91.293   3.12000000e+02 
91.257   2.64000000e+02 
91.221   2.56000000e+02 
91.185   2.51000000e+02 
91.149   2.24000000e+02 
91.113   2.25000000e+02 
91.077   2.00000000e+02 
91.041   2.16000000e+02 
91.005   2.02000000e+02 
90.970   1.90000000e+02 
90.934   1.97000000e+02 
90.898   1.96000000e+02 
90.862   1.74000000e+02 
90.826   1.87000000e+02 
90.790   1.78000000e+02 
90.754   1.81000000e+02 
90.718   1.83000000e+02 
90.682   1.49000000e+02 
90.646   1.43000000e+02 
90.610   1.40000000e+02 
90.574   1.43000000e+02 
90.538   1.25000000e+02 
90.502   1.35000000e+02 
90.466   1.55000000e+02 
90.430   1.62000000e+02 
90.395   1.49000000e+02 
90.359   1.68000000e+02 
90.323   1.46000000e+02 
90.287   1.25000000e+02 
90.251   1.35000000e+02 
90.215   1.53000000e+02 
90.179   1.19000000e+02 
90.143   1.26000000e+02 
90.107   1.19000000e+02 
90.071   1.15000000e+02 
90.035   1.35000000e+02 
89.999   1.33000000e+02 
89.963   1.36000000e+02 
89.927   1.29000000e+02 
89.891   1.20000000e+02 
89.855   1.10000000e+02 
89.820   1.20000000e+02 
89.784   1.33000000e+02 
89.748   1.17000000e+02 
89.712   1.09000000e+02 
89.676   1.04000000e+02 
89.640   1.13000000e+02 
89.604   1.30000000e+02 
89.568   1.10000000e+02 
89.532   1.05000000e+02 
89.496   9.90000000e+01 
89.460   9.80000000e+01 
89.424   1.25000000e+02 
89.388   9.60000000e+01 
89.352   1.13000000e+02 
89.316   1.06000000e+02 
89.280   1.01000000e+02 
89.245   1.34000000e+02 
89.209   1.10000000e+02 
89.173   9.90000000e+01 
89.137   9.80000000e+01 
89.101   9.20000000e+01 
89.065   1.16000000e+02 
89.029   1.15000000e+02 
88.993   1.07000000e+02 
88.957   8.90000000e+01 
88.921   9.70000000e+01 
88.885   8.80000000e+01 
88.849   1.19000000e+02 
88.813   9.80000000e+01 
88.777   8.50000000e+01 
88.741   1.07000000e+02 
88.705   8.80000000e+01 
88.670   1.16000000e+02 
88.634   9.90000000e+01 
88.598   1.10000000e+02 
88.562   1.12000000e+02 
88.526   9.50000000e+01 
88.490   1.12000000e+02 
88.454   9.80000000e+01 
88.418   1.01000000e+02 
88.382   1.05000000e+02 
88.346   1.17000000e+02 
88.310   1.03000000e+02 
88.274   1.04000000e+02 
88.238   1.02000000e+02 
88.202   1.13000000e+02 
88.166   9.10000000e+01 
88.130   9.00000000e+01 
88.095   1.00000000e+02 
88.059   1.17000000e+02 
88.023   1.00000000e+02 

