EXPERIMENT FILE
Version = 2

[ Experiment Parameters ]
Experiment Description= <none> 
Number_of_Regions_in_Experiment= 1 

Original_File_name= C:\alexesca\data\10302012_Au _4f_56nuetral-6_Mono290.xps 
Instrument= HP ESCA West
Date= 10-30-2012
Time=  18:18:54

[ Layer Parameters ]
Layer_Type= XPS

[ Region 1 Parameters ]
Region_Description = Au 4f Dithered Scan                
BEcenter(eV) = 93.000000
BEwidth(eV) = 10.000000
BEstep(eV) = 0.035937
Dwell_Time(sec) = 1.000000
N_o_scans = 1  
N_o_Channels = 278  
Scan_mode = 0  (DITHERED)

[ L= 1 R= 1 ]
BEcenter= 93.000  
BEwidth= -9.955  
Excitation= 1486.600
Time_p_channel= 256.000 
Size= 278
97.977   3.22000000e+02 
97.941   3.21000000e+02 
97.905   3.22000000e+02 
97.870   3.10000000e+02 
97.834   3.07000000e+02 
97.798   3.37000000e+02 
97.762   3.22000000e+02 
97.726   3.27000000e+02 
97.690   3.39000000e+02 
97.654   3.09000000e+02 
97.618   3.61000000e+02 
97.582   3.80000000e+02 
97.546   3.81000000e+02 
97.510   3.62000000e+02 
97.474   3.83000000e+02 
97.438   3.92000000e+02 
97.402   4.05000000e+02 
97.366   3.93000000e+02 
97.330   4.40000000e+02 
97.295   4.51000000e+02 
97.259   4.44000000e+02 
97.223   4.15000000e+02 
97.187   4.58000000e+02 
97.151   4.72000000e+02 
97.115   4.88000000e+02 
97.079   4.93000000e+02 
97.043   5.32000000e+02 
97.007   5.85000000e+02 
96.971   5.67000000e+02 
96.935   6.16000000e+02 
96.899   6.18000000e+02 
96.863   6.19000000e+02 
96.827   6.56000000e+02 
96.791   6.57000000e+02 
96.755   6.95000000e+02 
96.720   7.08000000e+02 
96.684   7.34000000e+02 
96.648   7.64000000e+02 
96.612   8.44000000e+02 
96.576   8.23000000e+02 
96.540   8.37000000e+02 
96.504   8.88000000e+02 
96.468   9.23000000e+02 
96.432   9.34000000e+02 
96.396   9.51000000e+02 
96.360   1.02500000e+03 
96.324   1.07100000e+03 
96.288   1.06500000e+03 
96.252   1.16200000e+03 
96.216   1.18800000e+03 
96.180   1.27200000e+03 
96.145   1.20800000e+03 
96.109   1.33100000e+03 
96.073   1.26400000e+03 
96.037   1.38500000e+03 
96.001   1.36300000e+03 
95.965   1.44400000e+03 
95.929   1.42300000e+03 
95.893   1.52400000e+03 
95.857   1.47400000e+03 
95.821   1.44500000e+03 
95.785   1.56000000e+03 
95.749   1.53300000e+03 
95.713   1.52200000e+03 
95.677   1.60600000e+03 
95.641   1.48700000e+03 
95.605   1.58400000e+03 
95.570   1.52400000e+03 
95.534   1.53000000e+03 
95.498   1.39900000e+03 
95.462   1.37000000e+03 
95.426   1.33500000e+03 
95.390   1.35500000e+03 
95.354   1.26500000e+03 
95.318   1.17300000e+03 
95.282   1.06900000e+03 
95.246   1.01500000e+03 
95.210   9.37000000e+02 
95.174   9.19000000e+02 
95.138   8.52000000e+02 
95.102   8.07000000e+02 
95.066   7.75000000e+02 
95.030   6.56000000e+02 
94.995   6.32000000e+02 
94.959   6.16000000e+02 
94.923   5.85000000e+02 
94.887   5.82000000e+02 
94.851   5.23000000e+02 
94.815   4.89000000e+02 
94.779   4.72000000e+02 
94.743   4.40000000e+02 
94.707   4.15000000e+02 
94.671   4.27000000e+02 
94.635   4.09000000e+02 
94.599   3.82000000e+02 
94.563   3.43000000e+02 
94.527   3.42000000e+02 
94.491   3.66000000e+02 
94.455   3.50000000e+02 
94.420   3.14000000e+02 
94.384   3.49000000e+02 
94.348   3.22000000e+02 
94.312   3.24000000e+02 
94.276   3.33000000e+02 
94.240   3.19000000e+02 
94.204   3.54000000e+02 
94.168   3.22000000e+02 
94.132   3.35000000e+02 
94.096   3.42000000e+02 
94.060   3.67000000e+02 
94.024   3.45000000e+02 
93.988   3.26000000e+02 
93.952   3.47000000e+02 
93.916   3.48000000e+02 
93.880   3.77000000e+02 
93.845   3.35000000e+02 
93.809   3.73000000e+02 
93.773   3.85000000e+02 
93.737   3.45000000e+02 
93.701   3.93000000e+02 
93.665   3.83000000e+02 
93.629   3.82000000e+02 
93.593   4.09000000e+02 
93.557   4.03000000e+02 
93.521   4.01000000e+02 
93.485   4.37000000e+02 
93.449   4.45000000e+02 
93.413   4.60000000e+02 
93.377   4.77000000e+02 
93.341   5.30000000e+02 
93.305   5.53000000e+02 
93.270   5.60000000e+02 
93.234   5.48000000e+02 
93.198   5.95000000e+02 
93.162   6.16000000e+02 
93.126   6.50000000e+02 
93.090   6.59000000e+02 
93.054   7.52000000e+02 
93.018   7.53000000e+02 
92.982   7.34000000e+02 
92.946   7.49000000e+02 
92.910   7.82000000e+02 
92.874   8.94000000e+02 
92.838   8.17000000e+02 
92.802   8.67000000e+02 
92.766   1.00000000e+03 
92.730   9.82000000e+02 
92.695   1.02000000e+03 
92.659   1.06400000e+03 
92.623   1.11600000e+03 
92.587   1.15800000e+03 
92.551   1.15300000e+03 
92.515   1.27000000e+03 
92.479   1.36100000e+03 
92.443   1.40600000e+03 
92.407   1.38800000e+03 
92.371   1.47600000e+03 
92.335   1.47500000e+03 
92.299   1.59000000e+03 
92.263   1.62800000e+03 
92.227   1.69900000e+03 
92.191   1.64800000e+03 
92.155   1.73400000e+03 
92.120   1.74800000e+03 
92.084   1.90100000e+03 
92.048   1.77700000e+03 
92.012   1.80100000e+03 
91.976   1.96200000e+03 
91.940   1.91200000e+03 
91.904   1.86200000e+03 
91.868   1.93900000e+03 
91.832   1.84400000e+03 
91.796   1.78000000e+03 
91.760   1.80700000e+03 
91.724   1.72400000e+03 
91.688   1.61600000e+03 
91.652   1.59700000e+03 
91.616   1.42400000e+03 
91.580   1.42000000e+03 
91.545   1.33900000e+03 
91.509   1.27300000e+03 
91.473   1.15100000e+03 
91.437   1.04500000e+03 
91.401   1.00300000e+03 
91.365   8.76000000e+02 
91.329   7.96000000e+02 
91.293   6.98000000e+02 
91.257   6.58000000e+02 
91.221   5.84000000e+02 
91.185   5.26000000e+02 
91.149   5.11000000e+02 
91.113   4.26000000e+02 
91.077   4.39000000e+02 
91.041   3.90000000e+02 
91.005   3.58000000e+02 
90.970   3.81000000e+02 
90.934   3.35000000e+02 
90.898   3.04000000e+02 
90.862   2.64000000e+02 
90.826   2.70000000e+02 
90.790   2.55000000e+02 
90.754   2.60000000e+02 
90.718   2.09000000e+02 
90.682   2.20000000e+02 
90.646   1.82000000e+02 
90.610   2.19000000e+02 
90.574   1.93000000e+02 
90.538   1.98000000e+02 
90.502   2.10000000e+02 
90.466   1.83000000e+02 
90.430   1.73000000e+02 
90.395   1.74000000e+02 
90.359   1.78000000e+02 
90.323   1.65000000e+02 
90.287   1.77000000e+02 
90.251   1.47000000e+02 
90.215   1.59000000e+02 
90.179   1.63000000e+02 
90.143   1.39000000e+02 
90.107   1.57000000e+02 
90.071   1.63000000e+02 
90.035   1.57000000e+02 
89.999   1.51000000e+02 
89.963   1.50000000e+02 
89.927   1.66000000e+02 
89.891   1.23000000e+02 
89.855   1.49000000e+02 
89.820   1.47000000e+02 
89.784   1.31000000e+02 
89.748   1.25000000e+02 
89.712   1.41000000e+02 
89.676   1.44000000e+02 
89.640   1.36000000e+02 
89.604   1.30000000e+02 
89.568   1.15000000e+02 
89.532   1.31000000e+02 
89.496   1.30000000e+02 
89.460   1.09000000e+02 
89.424   1.52000000e+02 
89.388   1.09000000e+02 
89.352   1.34000000e+02 
89.316   1.21000000e+02 
89.280   1.36000000e+02 
89.245   1.46000000e+02 
89.209   1.31000000e+02 
89.173   1.38000000e+02 
89.137   1.10000000e+02 
89.101   1.11000000e+02 
89.065   1.18000000e+02 
89.029   1.20000000e+02 
88.993   1.04000000e+02 
88.957   1.12000000e+02 
88.921   1.13000000e+02 
88.885   1.22000000e+02 
88.849   1.15000000e+02 
88.813   1.00000000e+02 
88.777   1.21000000e+02 
88.741   1.32000000e+02 
88.705   1.20000000e+02 
88.670   1.19000000e+02 
88.634   1.13000000e+02 
88.598   1.21000000e+02 
88.562   1.14000000e+02 
88.526   1.13000000e+02 
88.490   1.11000000e+02 
88.454   1.38000000e+02 
88.418   1.09000000e+02 
88.382   1.05000000e+02 
88.346   1.15000000e+02 
88.310   9.80000000e+01 
88.274   1.29000000e+02 
88.238   1.13000000e+02 
88.202   1.06000000e+02 
88.166   1.03000000e+02 
88.130   1.14000000e+02 
88.095   1.04000000e+02 
88.059   1.07000000e+02 
88.023   8.30000000e+01 

