EXPERIMENT FILE
Version = 2

[ Experiment Parameters ]
Experiment Description= <none> 
Number_of_Regions_in_Experiment= 1 

Original_File_name= C:\alexesca\data\10302012_Au _4f_56nuetral+14_Mono285.xps 
Instrument= HP ESCA West
Date= 10-30-2012
Time=  16:43:56

[ Layer Parameters ]
Layer_Type= XPS

[ Region 1 Parameters ]
Region_Description = Au 4f Dithered Scan                
BEcenter(eV) = 93.000000
BEwidth(eV) = 10.000000
BEstep(eV) = 0.035937
Dwell_Time(sec) = 1.000000
N_o_scans = 1  
N_o_Channels = 278  
Scan_mode = 0  (DITHERED)

[ L= 1 R= 1 ]
BEcenter= 93.000  
BEwidth= -9.955  
Excitation= 1486.600
Time_p_channel= 256.000 
Size= 278
97.977   5.51000000e+02 
97.941   5.39000000e+02 
97.905   5.43000000e+02 
97.870   5.66000000e+02 
97.834   5.39000000e+02 
97.798   5.31000000e+02 
97.762   5.76000000e+02 
97.726   5.23000000e+02 
97.690   6.12000000e+02 
97.654   5.71000000e+02 
97.618   6.24000000e+02 
97.582   5.80000000e+02 
97.546   6.28000000e+02 
97.510   6.44000000e+02 
97.474   6.68000000e+02 
97.438   6.17000000e+02 
97.402   6.80000000e+02 
97.366   6.74000000e+02 
97.330   7.14000000e+02 
97.295   6.96000000e+02 
97.259   7.34000000e+02 
97.223   7.72000000e+02 
97.187   8.25000000e+02 
97.151   7.79000000e+02 
97.115   7.83000000e+02 
97.079   8.27000000e+02 
97.043   8.77000000e+02 
97.007   8.52000000e+02 
96.971   8.94000000e+02 
96.935   9.85000000e+02 
96.899   9.94000000e+02 
96.863   9.56000000e+02 
96.827   1.06700000e+03 
96.791   1.08200000e+03 
96.755   1.11100000e+03 
96.720   1.19500000e+03 
96.684   1.15400000e+03 
96.648   1.21400000e+03 
96.612   1.32500000e+03 
96.576   1.31700000e+03 
96.540   1.43100000e+03 
96.504   1.43500000e+03 
96.468   1.46400000e+03 
96.432   1.53000000e+03 
96.396   1.61700000e+03 
96.360   1.63800000e+03 
96.324   1.66800000e+03 
96.288   1.72700000e+03 
96.252   1.74700000e+03 
96.216   1.80900000e+03 
96.180   1.84000000e+03 
96.145   1.87600000e+03 
96.109   1.89400000e+03 
96.073   1.97700000e+03 
96.037   2.03900000e+03 
96.001   2.03400000e+03 
95.965   2.13900000e+03 
95.929   2.12800000e+03 
95.893   2.08400000e+03 
95.857   2.20500000e+03 
95.821   2.20200000e+03 
95.785   2.23700000e+03 
95.749   2.28500000e+03 
95.713   2.26100000e+03 
95.677   2.24500000e+03 
95.641   2.29900000e+03 
95.605   2.33500000e+03 
95.570   2.42700000e+03 
95.534   2.42200000e+03 
95.498   2.44700000e+03 
95.462   2.32400000e+03 
95.426   2.34500000e+03 
95.390   2.26200000e+03 
95.354   2.31500000e+03 
95.318   2.29500000e+03 
95.282   2.19800000e+03 
95.246   2.23200000e+03 
95.210   2.14000000e+03 
95.174   2.13000000e+03 
95.138   2.00700000e+03 
95.102   1.98600000e+03 
95.066   1.90700000e+03 
95.030   1.90600000e+03 
94.995   1.78900000e+03 
94.959   1.62900000e+03 
94.923   1.62800000e+03 
94.887   1.58600000e+03 
94.851   1.40200000e+03 
94.815   1.39900000e+03 
94.779   1.30900000e+03 
94.743   1.21400000e+03 
94.707   1.22300000e+03 
94.671   1.09400000e+03 
94.635   1.04900000e+03 
94.599   9.21000000e+02 
94.563   9.64000000e+02 
94.527   8.69000000e+02 
94.491   8.32000000e+02 
94.455   7.51000000e+02 
94.420   8.11000000e+02 
94.384   7.80000000e+02 
94.348   7.50000000e+02 
94.312   6.91000000e+02 
94.276   6.93000000e+02 
94.240   6.56000000e+02 
94.204   6.09000000e+02 
94.168   5.94000000e+02 
94.132   6.19000000e+02 
94.096   5.96000000e+02 
94.060   5.91000000e+02 
94.024   6.18000000e+02 
93.988   6.10000000e+02 
93.952   5.94000000e+02 
93.916   6.26000000e+02 
93.880   6.48000000e+02 
93.845   6.66000000e+02 
93.809   7.04000000e+02 
93.773   6.86000000e+02 
93.737   6.64000000e+02 
93.701   7.10000000e+02 
93.665   7.35000000e+02 
93.629   7.29000000e+02 
93.593   7.64000000e+02 
93.557   7.98000000e+02 
93.521   7.22000000e+02 
93.485   7.67000000e+02 
93.449   8.17000000e+02 
93.413   8.33000000e+02 
93.377   8.79000000e+02 
93.341   9.60000000e+02 
93.305   9.87000000e+02 
93.270   1.00000000e+03 
93.234   1.00900000e+03 
93.198   1.07800000e+03 
93.162   1.12500000e+03 
93.126   1.21700000e+03 
93.090   1.22600000e+03 
93.054   1.27100000e+03 
93.018   1.32100000e+03 
92.982   1.37100000e+03 
92.946   1.41700000e+03 
92.910   1.42700000e+03 
92.874   1.48100000e+03 
92.838   1.58100000e+03 
92.802   1.64300000e+03 
92.766   1.73200000e+03 
92.730   1.78300000e+03 
92.695   1.79800000e+03 
92.659   1.91400000e+03 
92.623   1.92400000e+03 
92.587   1.96800000e+03 
92.551   2.10600000e+03 
92.515   2.10900000e+03 
92.479   2.17600000e+03 
92.443   2.18500000e+03 
92.407   2.28700000e+03 
92.371   2.35900000e+03 
92.335   2.41200000e+03 
92.299   2.48200000e+03 
92.263   2.46800000e+03 
92.227   2.53400000e+03 
92.191   2.58900000e+03 
92.155   2.73300000e+03 
92.120   2.59200000e+03 
92.084   2.66400000e+03 
92.048   2.77500000e+03 
92.012   2.76600000e+03 
91.976   2.80000000e+03 
91.940   2.71800000e+03 
91.904   2.75700000e+03 
91.868   2.82700000e+03 
91.832   2.71800000e+03 
91.796   2.70700000e+03 
91.760   2.77700000e+03 
91.724   2.71200000e+03 
91.688   2.76800000e+03 
91.652   2.67400000e+03 
91.616   2.76400000e+03 
91.580   2.54300000e+03 
91.545   2.45700000e+03 
91.509   2.48500000e+03 
91.473   2.29700000e+03 
91.437   2.25200000e+03 
91.401   2.20300000e+03 
91.365   2.13200000e+03 
91.329   2.05500000e+03 
91.293   1.96200000e+03 
91.257   1.85600000e+03 
91.221   1.68200000e+03 
91.185   1.61200000e+03 
91.149   1.53300000e+03 
91.113   1.42800000e+03 
91.077   1.35400000e+03 
91.041   1.30300000e+03 
91.005   1.16100000e+03 
90.970   1.04300000e+03 
90.934   1.00900000e+03 
90.898   9.35000000e+02 
90.862   8.03000000e+02 
90.826   7.23000000e+02 
90.790   6.74000000e+02 
90.754   6.56000000e+02 
90.718   5.82000000e+02 
90.682   5.46000000e+02 
90.646   4.85000000e+02 
90.610   4.64000000e+02 
90.574   4.53000000e+02 
90.538   4.50000000e+02 
90.502   4.43000000e+02 
90.466   3.81000000e+02 
90.430   3.62000000e+02 
90.395   3.72000000e+02 
90.359   3.66000000e+02 
90.323   3.42000000e+02 
90.287   2.91000000e+02 
90.251   3.33000000e+02 
90.215   3.32000000e+02 
90.179   2.77000000e+02 
90.143   2.59000000e+02 
90.107   3.02000000e+02 
90.071   2.63000000e+02 
90.035   2.49000000e+02 
89.999   2.74000000e+02 
89.963   2.53000000e+02 
89.927   2.68000000e+02 
89.891   2.54000000e+02 
89.855   2.83000000e+02 
89.820   2.18000000e+02 
89.784   2.42000000e+02 
89.748   2.30000000e+02 
89.712   2.43000000e+02 
89.676   2.10000000e+02 
89.640   2.32000000e+02 
89.604   2.24000000e+02 
89.568   2.10000000e+02 
89.532   2.27000000e+02 
89.496   2.12000000e+02 
89.460   2.35000000e+02 
89.424   2.22000000e+02 
89.388   2.10000000e+02 
89.352   2.33000000e+02 
89.316   2.00000000e+02 
89.280   2.24000000e+02 
89.245   1.93000000e+02 
89.209   2.14000000e+02 
89.173   2.07000000e+02 
89.137   2.11000000e+02 
89.101   2.00000000e+02 
89.065   2.15000000e+02 
89.029   2.29000000e+02 
88.993   2.09000000e+02 
88.957   2.02000000e+02 
88.921   1.99000000e+02 
88.885   1.83000000e+02 
88.849   2.00000000e+02 
88.813   1.92000000e+02 
88.777   1.88000000e+02 
88.741   1.93000000e+02 
88.705   1.56000000e+02 
88.670   2.04000000e+02 
88.634   1.84000000e+02 
88.598   1.79000000e+02 
88.562   2.03000000e+02 
88.526   1.95000000e+02 
88.490   1.72000000e+02 
88.454   1.91000000e+02 
88.418   1.91000000e+02 
88.382   2.09000000e+02 
88.346   1.81000000e+02 
88.310   1.75000000e+02 
88.274   1.89000000e+02 
88.238   2.05000000e+02 
88.202   1.80000000e+02 
88.166   1.65000000e+02 
88.130   1.88000000e+02 
88.095   1.86000000e+02 
88.059   1.81000000e+02 
88.023   1.93000000e+02 

