EXPERIMENT FILE
Version = 2

[ Experiment Parameters ]
Experiment Description= <none> 
Number_of_Regions_in_Experiment= 1 

Original_File_name= C:\alexesca\data\10302012_Au _4f_56nuetral+14_Mono282.xps 
Instrument= HP ESCA West
Date= 10-30-2012
Time=  16:59:09

[ Layer Parameters ]
Layer_Type= XPS

[ Region 1 Parameters ]
Region_Description = Au 4f Dithered Scan                
BEcenter(eV) = 93.000000
BEwidth(eV) = 10.000000
BEstep(eV) = 0.035937
Dwell_Time(sec) = 1.000000
N_o_scans = 1  
N_o_Channels = 278  
Scan_mode = 0  (DITHERED)

[ L= 1 R= 1 ]
BEcenter= 93.000  
BEwidth= -9.955  
Excitation= 1486.600
Time_p_channel= 256.000 
Size= 278
97.977   5.37000000e+02 
97.941   5.38000000e+02 
97.905   5.41000000e+02 
97.870   4.96000000e+02 
97.834   5.26000000e+02 
97.798   5.40000000e+02 
97.762   5.87000000e+02 
97.726   5.66000000e+02 
97.690   5.51000000e+02 
97.654   6.26000000e+02 
97.618   5.79000000e+02 
97.582   6.07000000e+02 
97.546   6.05000000e+02 
97.510   6.17000000e+02 
97.474   5.53000000e+02 
97.438   6.24000000e+02 
97.402   7.01000000e+02 
97.366   6.70000000e+02 
97.330   6.55000000e+02 
97.295   7.10000000e+02 
97.259   7.01000000e+02 
97.223   7.03000000e+02 
97.187   7.10000000e+02 
97.151   7.44000000e+02 
97.115   7.38000000e+02 
97.079   7.82000000e+02 
97.043   8.80000000e+02 
97.007   8.08000000e+02 
96.971   8.78000000e+02 
96.935   8.88000000e+02 
96.899   9.68000000e+02 
96.863   9.21000000e+02 
96.827   9.63000000e+02 
96.791   1.00600000e+03 
96.755   1.08800000e+03 
96.720   1.10600000e+03 
96.684   1.08600000e+03 
96.648   1.10000000e+03 
96.612   1.18800000e+03 
96.576   1.26100000e+03 
96.540   1.22300000e+03 
96.504   1.31700000e+03 
96.468   1.36700000e+03 
96.432   1.37900000e+03 
96.396   1.43800000e+03 
96.360   1.43900000e+03 
96.324   1.50400000e+03 
96.288   1.60600000e+03 
96.252   1.60800000e+03 
96.216   1.63500000e+03 
96.180   1.69300000e+03 
96.145   1.72900000e+03 
96.109   1.75100000e+03 
96.073   1.80800000e+03 
96.037   1.89100000e+03 
96.001   1.86800000e+03 
95.965   1.97500000e+03 
95.929   1.98700000e+03 
95.893   2.14900000e+03 
95.857   2.04200000e+03 
95.821   2.16200000e+03 
95.785   2.17800000e+03 
95.749   2.14000000e+03 
95.713   2.22200000e+03 
95.677   2.26000000e+03 
95.641   2.24600000e+03 
95.605   2.36400000e+03 
95.570   2.38000000e+03 
95.534   2.40100000e+03 
95.498   2.45400000e+03 
95.462   2.39700000e+03 
95.426   2.41300000e+03 
95.390   2.55000000e+03 
95.354   2.42800000e+03 
95.318   2.32400000e+03 
95.282   2.42400000e+03 
95.246   2.29000000e+03 
95.210   2.34200000e+03 
95.174   2.37100000e+03 
95.138   2.23900000e+03 
95.102   2.19100000e+03 
95.066   2.16000000e+03 
95.030   2.15400000e+03 
94.995   2.08200000e+03 
94.959   2.03600000e+03 
94.923   1.87500000e+03 
94.887   1.91000000e+03 
94.851   1.67100000e+03 
94.815   1.72800000e+03 
94.779   1.59400000e+03 
94.743   1.52900000e+03 
94.707   1.49800000e+03 
94.671   1.34500000e+03 
94.635   1.27000000e+03 
94.599   1.28600000e+03 
94.563   1.08900000e+03 
94.527   1.14200000e+03 
94.491   1.05100000e+03 
94.455   9.48000000e+02 
94.420   8.61000000e+02 
94.384   8.24000000e+02 
94.348   8.40000000e+02 
94.312   7.81000000e+02 
94.276   7.51000000e+02 
94.240   6.95000000e+02 
94.204   6.92000000e+02 
94.168   7.29000000e+02 
94.132   6.74000000e+02 
94.096   6.36000000e+02 
94.060   6.55000000e+02 
94.024   6.70000000e+02 
93.988   6.17000000e+02 
93.952   6.74000000e+02 
93.916   6.58000000e+02 
93.880   6.45000000e+02 
93.845   6.17000000e+02 
93.809   6.58000000e+02 
93.773   7.02000000e+02 
93.737   6.38000000e+02 
93.701   6.62000000e+02 
93.665   6.81000000e+02 
93.629   7.20000000e+02 
93.593   7.15000000e+02 
93.557   7.42000000e+02 
93.521   7.41000000e+02 
93.485   7.83000000e+02 
93.449   7.70000000e+02 
93.413   8.14000000e+02 
93.377   8.36000000e+02 
93.341   9.22000000e+02 
93.305   9.41000000e+02 
93.270   9.27000000e+02 
93.234   9.51000000e+02 
93.198   1.05000000e+03 
93.162   1.06500000e+03 
93.126   1.06500000e+03 
93.090   1.16900000e+03 
93.054   1.15700000e+03 
93.018   1.23200000e+03 
92.982   1.30400000e+03 
92.946   1.25900000e+03 
92.910   1.36200000e+03 
92.874   1.42400000e+03 
92.838   1.39100000e+03 
92.802   1.50800000e+03 
92.766   1.49100000e+03 
92.730   1.56900000e+03 
92.695   1.60900000e+03 
92.659   1.68300000e+03 
92.623   1.76700000e+03 
92.587   1.76900000e+03 
92.551   1.89300000e+03 
92.515   2.02200000e+03 
92.479   1.97500000e+03 
92.443   2.04200000e+03 
92.407   2.05900000e+03 
92.371   2.17300000e+03 
92.335   2.26500000e+03 
92.299   2.35600000e+03 
92.263   2.29500000e+03 
92.227   2.43300000e+03 
92.191   2.50700000e+03 
92.155   2.50200000e+03 
92.120   2.52900000e+03 
92.084   2.64000000e+03 
92.048   2.62800000e+03 
92.012   2.56100000e+03 
91.976   2.71200000e+03 
91.940   2.72400000e+03 
91.904   2.70700000e+03 
91.868   2.78400000e+03 
91.832   2.84900000e+03 
91.796   2.73600000e+03 
91.760   2.90900000e+03 
91.724   2.82900000e+03 
91.688   2.75600000e+03 
91.652   2.85500000e+03 
91.616   2.81600000e+03 
91.580   2.74600000e+03 
91.545   2.76400000e+03 
91.509   2.72700000e+03 
91.473   2.73400000e+03 
91.437   2.62800000e+03 
91.401   2.62400000e+03 
91.365   2.46300000e+03 
91.329   2.37800000e+03 
91.293   2.21700000e+03 
91.257   2.23700000e+03 
91.221   2.18900000e+03 
91.185   1.99600000e+03 
91.149   1.92200000e+03 
91.113   1.79400000e+03 
91.077   1.72200000e+03 
91.041   1.50800000e+03 
91.005   1.47200000e+03 
90.970   1.36400000e+03 
90.934   1.20800000e+03 
90.898   1.14300000e+03 
90.862   1.07100000e+03 
90.826   9.00000000e+02 
90.790   9.28000000e+02 
90.754   8.26000000e+02 
90.718   7.27000000e+02 
90.682   6.79000000e+02 
90.646   6.71000000e+02 
90.610   5.34000000e+02 
90.574   5.55000000e+02 
90.538   5.26000000e+02 
90.502   4.81000000e+02 
90.466   4.04000000e+02 
90.430   4.26000000e+02 
90.395   3.92000000e+02 
90.359   4.28000000e+02 
90.323   4.04000000e+02 
90.287   3.83000000e+02 
90.251   3.39000000e+02 
90.215   3.38000000e+02 
90.179   3.12000000e+02 
90.143   3.10000000e+02 
90.107   3.01000000e+02 
90.071   2.76000000e+02 
90.035   2.97000000e+02 
89.999   3.02000000e+02 
89.963   2.92000000e+02 
89.927   2.66000000e+02 
89.891   2.53000000e+02 
89.855   2.78000000e+02 
89.820   2.34000000e+02 
89.784   2.42000000e+02 
89.748   2.54000000e+02 
89.712   2.63000000e+02 
89.676   2.19000000e+02 
89.640   2.17000000e+02 
89.604   2.33000000e+02 
89.568   2.64000000e+02 
89.532   2.08000000e+02 
89.496   2.17000000e+02 
89.460   2.61000000e+02 
89.424   2.30000000e+02 
89.388   2.50000000e+02 
89.352   2.33000000e+02 
89.316   2.21000000e+02 
89.280   2.25000000e+02 
89.245   2.18000000e+02 
89.209   2.23000000e+02 
89.173   2.24000000e+02 
89.137   2.30000000e+02 
89.101   2.12000000e+02 
89.065   2.16000000e+02 
89.029   2.18000000e+02 
88.993   1.97000000e+02 
88.957   1.99000000e+02 
88.921   2.09000000e+02 
88.885   1.97000000e+02 
88.849   2.08000000e+02 
88.813   2.02000000e+02 
88.777   1.98000000e+02 
88.741   1.99000000e+02 
88.705   1.95000000e+02 
88.670   2.10000000e+02 
88.634   1.99000000e+02 
88.598   1.90000000e+02 
88.562   1.85000000e+02 
88.526   2.16000000e+02 
88.490   2.11000000e+02 
88.454   1.70000000e+02 
88.418   1.71000000e+02 
88.382   1.66000000e+02 
88.346   2.04000000e+02 
88.310   2.17000000e+02 
88.274   1.95000000e+02 
88.238   1.81000000e+02 
88.202   2.06000000e+02 
88.166   1.86000000e+02 
88.130   2.01000000e+02 
88.095   1.64000000e+02 
88.059   1.98000000e+02 
88.023   1.70000000e+02 

