EXPERIMENT FILE
Version = 2

[ Experiment Parameters ]
Experiment Description= <none> 
Number_of_Regions_in_Experiment= 1 

Original_File_name= C:\alexesca\data\10302012_Au _4f_56nuetral+14_Mono290.xps 
Instrument= HP ESCA West
Date= 10-30-2012
Time=  16:07:06

[ Layer Parameters ]
Layer_Type= XPS

[ Region 1 Parameters ]
Region_Description = Au 4f Dithered Scan                
BEcenter(eV) = 93.000000
BEwidth(eV) = 10.000000
BEstep(eV) = 0.035937
Dwell_Time(sec) = 1.000000
N_o_scans = 1  
N_o_Channels = 278  
Scan_mode = 0  (DITHERED)

[ L= 1 R= 1 ]
BEcenter= 93.000  
BEwidth= -9.955  
Excitation= 1486.600
Time_p_channel= 256.000 
Size= 278
97.977   5.30000000e+02 
97.941   5.33000000e+02 
97.905   5.49000000e+02 
97.870   5.21000000e+02 
97.834   4.74000000e+02 
97.798   5.22000000e+02 
97.762   5.55000000e+02 
97.726   5.55000000e+02 
97.690   5.98000000e+02 
97.654   5.77000000e+02 
97.618   6.00000000e+02 
97.582   5.63000000e+02 
97.546   6.46000000e+02 
97.510   5.97000000e+02 
97.474   5.80000000e+02 
97.438   6.47000000e+02 
97.402   6.66000000e+02 
97.366   6.94000000e+02 
97.330   6.93000000e+02 
97.295   7.34000000e+02 
97.259   7.14000000e+02 
97.223   8.06000000e+02 
97.187   7.51000000e+02 
97.151   7.85000000e+02 
97.115   8.05000000e+02 
97.079   8.61000000e+02 
97.043   9.42000000e+02 
97.007   9.09000000e+02 
96.971   9.53000000e+02 
96.935   9.67000000e+02 
96.899   1.05000000e+03 
96.863   1.09200000e+03 
96.827   1.11300000e+03 
96.791   1.12200000e+03 
96.755   1.20600000e+03 
96.720   1.21800000e+03 
96.684   1.29300000e+03 
96.648   1.23900000e+03 
96.612   1.33000000e+03 
96.576   1.39100000e+03 
96.540   1.41900000e+03 
96.504   1.40900000e+03 
96.468   1.44200000e+03 
96.432   1.57500000e+03 
96.396   1.59100000e+03 
96.360   1.66400000e+03 
96.324   1.72200000e+03 
96.288   1.83200000e+03 
96.252   1.84800000e+03 
96.216   1.87700000e+03 
96.180   1.87900000e+03 
96.145   1.91900000e+03 
96.109   2.07700000e+03 
96.073   1.93000000e+03 
96.037   2.06400000e+03 
96.001   2.09500000e+03 
95.965   2.12700000e+03 
95.929   2.13500000e+03 
95.893   2.17700000e+03 
95.857   2.27800000e+03 
95.821   2.22700000e+03 
95.785   2.27500000e+03 
95.749   2.32100000e+03 
95.713   2.32100000e+03 
95.677   2.28500000e+03 
95.641   2.24400000e+03 
95.605   2.22100000e+03 
95.570   2.21100000e+03 
95.534   2.14200000e+03 
95.498   2.22200000e+03 
95.462   2.16000000e+03 
95.426   2.08100000e+03 
95.390   2.06700000e+03 
95.354   2.11400000e+03 
95.318   2.00500000e+03 
95.282   1.94100000e+03 
95.246   1.85800000e+03 
95.210   1.83700000e+03 
95.174   1.79800000e+03 
95.138   1.70400000e+03 
95.102   1.67900000e+03 
95.066   1.52400000e+03 
95.030   1.46700000e+03 
94.995   1.41500000e+03 
94.959   1.33900000e+03 
94.923   1.29000000e+03 
94.887   1.24600000e+03 
94.851   1.17500000e+03 
94.815   1.17700000e+03 
94.779   1.06000000e+03 
94.743   1.05900000e+03 
94.707   9.58000000e+02 
94.671   9.47000000e+02 
94.635   8.71000000e+02 
94.599   8.60000000e+02 
94.563   7.56000000e+02 
94.527   7.17000000e+02 
94.491   7.39000000e+02 
94.455   6.97000000e+02 
94.420   7.05000000e+02 
94.384   6.50000000e+02 
94.348   6.11000000e+02 
94.312   6.62000000e+02 
94.276   6.34000000e+02 
94.240   5.78000000e+02 
94.204   6.48000000e+02 
94.168   6.07000000e+02 
94.132   5.53000000e+02 
94.096   5.17000000e+02 
94.060   5.69000000e+02 
94.024   6.03000000e+02 
93.988   6.22000000e+02 
93.952   5.71000000e+02 
93.916   6.21000000e+02 
93.880   6.83000000e+02 
93.845   6.48000000e+02 
93.809   6.48000000e+02 
93.773   6.33000000e+02 
93.737   7.05000000e+02 
93.701   6.88000000e+02 
93.665   6.83000000e+02 
93.629   7.61000000e+02 
93.593   7.72000000e+02 
93.557   7.86000000e+02 
93.521   8.22000000e+02 
93.485   8.61000000e+02 
93.449   8.71000000e+02 
93.413   9.35000000e+02 
93.377   9.35000000e+02 
93.341   1.00200000e+03 
93.305   1.02000000e+03 
93.270   1.06200000e+03 
93.234   1.11600000e+03 
93.198   1.11800000e+03 
93.162   1.18900000e+03 
93.126   1.24000000e+03 
93.090   1.27400000e+03 
93.054   1.37300000e+03 
93.018   1.37300000e+03 
92.982   1.51800000e+03 
92.946   1.56400000e+03 
92.910   1.57300000e+03 
92.874   1.64000000e+03 
92.838   1.71100000e+03 
92.802   1.73600000e+03 
92.766   1.84200000e+03 
92.730   1.84100000e+03 
92.695   1.91900000e+03 
92.659   1.97400000e+03 
92.623   2.09200000e+03 
92.587   2.07300000e+03 
92.551   2.22800000e+03 
92.515   2.19800000e+03 
92.479   2.26800000e+03 
92.443   2.37600000e+03 
92.407   2.35800000e+03 
92.371   2.37400000e+03 
92.335   2.36900000e+03 
92.299   2.54500000e+03 
92.263   2.57600000e+03 
92.227   2.64100000e+03 
92.191   2.62700000e+03 
92.155   2.71500000e+03 
92.120   2.61800000e+03 
92.084   2.75300000e+03 
92.048   2.71500000e+03 
92.012   2.66800000e+03 
91.976   2.73000000e+03 
91.940   2.59700000e+03 
91.904   2.72400000e+03 
91.868   2.62900000e+03 
91.832   2.54400000e+03 
91.796   2.49900000e+03 
91.760   2.52300000e+03 
91.724   2.45500000e+03 
91.688   2.36900000e+03 
91.652   2.33600000e+03 
91.616   2.26800000e+03 
91.580   2.23300000e+03 
91.545   2.12200000e+03 
91.509   2.05400000e+03 
91.473   1.94300000e+03 
91.437   1.81700000e+03 
91.401   1.81300000e+03 
91.365   1.68100000e+03 
91.329   1.59100000e+03 
91.293   1.47500000e+03 
91.257   1.40400000e+03 
91.221   1.32200000e+03 
91.185   1.30900000e+03 
91.149   1.12800000e+03 
91.113   1.09500000e+03 
91.077   1.02100000e+03 
91.041   9.20000000e+02 
91.005   8.79000000e+02 
90.970   7.93000000e+02 
90.934   7.47000000e+02 
90.898   6.84000000e+02 
90.862   5.83000000e+02 
90.826   5.63000000e+02 
90.790   5.48000000e+02 
90.754   4.97000000e+02 
90.718   5.09000000e+02 
90.682   4.38000000e+02 
90.646   3.98000000e+02 
90.610   3.79000000e+02 
90.574   3.90000000e+02 
90.538   3.44000000e+02 
90.502   3.32000000e+02 
90.466   3.29000000e+02 
90.430   3.29000000e+02 
90.395   2.91000000e+02 
90.359   2.84000000e+02 
90.323   3.01000000e+02 
90.287   2.67000000e+02 
90.251   2.66000000e+02 
90.215   2.71000000e+02 
90.179   2.53000000e+02 
90.143   2.81000000e+02 
90.107   2.83000000e+02 
90.071   2.42000000e+02 
90.035   2.57000000e+02 
89.999   2.48000000e+02 
89.963   2.36000000e+02 
89.927   2.31000000e+02 
89.891   2.30000000e+02 
89.855   2.46000000e+02 
89.820   2.35000000e+02 
89.784   2.24000000e+02 
89.748   2.31000000e+02 
89.712   2.17000000e+02 
89.676   2.09000000e+02 
89.640   2.00000000e+02 
89.604   2.12000000e+02 
89.568   2.13000000e+02 
89.532   2.34000000e+02 
89.496   2.14000000e+02 
89.460   2.11000000e+02 
89.424   2.12000000e+02 
89.388   2.20000000e+02 
89.352   1.89000000e+02 
89.316   1.80000000e+02 
89.280   1.95000000e+02 
89.245   1.78000000e+02 
89.209   2.07000000e+02 
89.173   1.98000000e+02 
89.137   2.10000000e+02 
89.101   1.93000000e+02 
89.065   1.91000000e+02 
89.029   1.76000000e+02 
88.993   1.74000000e+02 
88.957   2.06000000e+02 
88.921   2.11000000e+02 
88.885   2.07000000e+02 
88.849   2.05000000e+02 
88.813   1.77000000e+02 
88.777   1.80000000e+02 
88.741   1.73000000e+02 
88.705   1.99000000e+02 
88.670   1.89000000e+02 
88.634   1.49000000e+02 
88.598   1.94000000e+02 
88.562   1.64000000e+02 
88.526   1.68000000e+02 
88.490   1.85000000e+02 
88.454   1.93000000e+02 
88.418   1.75000000e+02 
88.382   1.81000000e+02 
88.346   1.62000000e+02 
88.310   1.68000000e+02 
88.274   1.68000000e+02 
88.238   1.73000000e+02 
88.202   2.07000000e+02 
88.166   1.69000000e+02 
88.130   1.83000000e+02 
88.095   1.72000000e+02 
88.059   1.32000000e+02 
88.023   1.72000000e+02 

