EXPERIMENT FILE
Version = 2

[ Experiment Parameters ]
Experiment Description= <none> 
Number_of_Regions_in_Experiment= 1 

Original_File_name= C:\alexesca\data\10302012_Au _4f_56nuetral-6_Mono280.xps 
Instrument= HP ESCA West
Date= 10-30-2012
Time=  15:53:56

[ Layer Parameters ]
Layer_Type= XPS

[ Region 1 Parameters ]
Region_Description = Au 4f Dithered Scan                
BEcenter(eV) = 93.000000
BEwidth(eV) = 10.000000
BEstep(eV) = 0.035937
Dwell_Time(sec) = 1.000000
N_o_scans = 1  
N_o_Channels = 278  
Scan_mode = 0  (DITHERED)

[ L= 1 R= 1 ]
BEcenter= 93.000  
BEwidth= -9.955  
Excitation= 1486.600
Time_p_channel= 256.000 
Size= 278
97.977   3.30000000e+02 
97.941   3.10000000e+02 
97.905   2.98000000e+02 
97.870   3.43000000e+02 
97.834   3.57000000e+02 
97.798   3.43000000e+02 
97.762   3.43000000e+02 
97.726   3.32000000e+02 
97.690   3.23000000e+02 
97.654   3.51000000e+02 
97.618   3.80000000e+02 
97.582   3.77000000e+02 
97.546   3.58000000e+02 
97.510   3.62000000e+02 
97.474   3.66000000e+02 
97.438   3.86000000e+02 
97.402   3.55000000e+02 
97.366   3.86000000e+02 
97.330   3.73000000e+02 
97.295   3.80000000e+02 
97.259   4.11000000e+02 
97.223   4.26000000e+02 
97.187   4.03000000e+02 
97.151   4.05000000e+02 
97.115   4.24000000e+02 
97.079   4.62000000e+02 
97.043   4.45000000e+02 
97.007   4.58000000e+02 
96.971   4.79000000e+02 
96.935   4.58000000e+02 
96.899   4.97000000e+02 
96.863   5.00000000e+02 
96.827   5.39000000e+02 
96.791   5.41000000e+02 
96.755   5.70000000e+02 
96.720   5.38000000e+02 
96.684   5.53000000e+02 
96.648   5.90000000e+02 
96.612   6.37000000e+02 
96.576   6.55000000e+02 
96.540   6.64000000e+02 
96.504   7.13000000e+02 
96.468   6.88000000e+02 
96.432   7.27000000e+02 
96.396   7.55000000e+02 
96.360   8.54000000e+02 
96.324   7.71000000e+02 
96.288   8.72000000e+02 
96.252   8.28000000e+02 
96.216   9.46000000e+02 
96.180   9.81000000e+02 
96.145   9.91000000e+02 
96.109   1.03600000e+03 
96.073   1.01300000e+03 
96.037   1.11600000e+03 
96.001   1.15400000e+03 
95.965   1.16000000e+03 
95.929   1.21000000e+03 
95.893   1.25000000e+03 
95.857   1.28100000e+03 
95.821   1.31200000e+03 
95.785   1.40300000e+03 
95.749   1.39200000e+03 
95.713   1.44200000e+03 
95.677   1.50100000e+03 
95.641   1.53800000e+03 
95.605   1.48700000e+03 
95.570   1.56000000e+03 
95.534   1.65400000e+03 
95.498   1.69100000e+03 
95.462   1.66600000e+03 
95.426   1.64700000e+03 
95.390   1.82400000e+03 
95.354   1.77000000e+03 
95.318   1.66300000e+03 
95.282   1.70700000e+03 
95.246   1.73300000e+03 
95.210   1.60800000e+03 
95.174   1.58800000e+03 
95.138   1.55700000e+03 
95.102   1.56600000e+03 
95.066   1.41800000e+03 
95.030   1.41800000e+03 
94.995   1.25700000e+03 
94.959   1.21500000e+03 
94.923   1.12500000e+03 
94.887   1.06500000e+03 
94.851   9.27000000e+02 
94.815   9.00000000e+02 
94.779   8.59000000e+02 
94.743   7.39000000e+02 
94.707   7.45000000e+02 
94.671   6.35000000e+02 
94.635   6.19000000e+02 
94.599   5.35000000e+02 
94.563   5.31000000e+02 
94.527   5.33000000e+02 
94.491   5.15000000e+02 
94.455   4.96000000e+02 
94.420   4.25000000e+02 
94.384   4.47000000e+02 
94.348   4.11000000e+02 
94.312   3.89000000e+02 
94.276   4.06000000e+02 
94.240   3.96000000e+02 
94.204   4.28000000e+02 
94.168   3.99000000e+02 
94.132   3.72000000e+02 
94.096   4.00000000e+02 
94.060   3.57000000e+02 
94.024   3.77000000e+02 
93.988   3.00000000e+02 
93.952   3.54000000e+02 
93.916   3.90000000e+02 
93.880   3.61000000e+02 
93.845   3.40000000e+02 
93.809   3.42000000e+02 
93.773   3.50000000e+02 
93.737   4.21000000e+02 
93.701   3.49000000e+02 
93.665   3.61000000e+02 
93.629   3.61000000e+02 
93.593   3.97000000e+02 
93.557   4.04000000e+02 
93.521   3.94000000e+02 
93.485   4.61000000e+02 
93.449   4.20000000e+02 
93.413   4.31000000e+02 
93.377   4.39000000e+02 
93.341   4.95000000e+02 
93.305   4.31000000e+02 
93.270   4.92000000e+02 
93.234   4.88000000e+02 
93.198   5.04000000e+02 
93.162   5.49000000e+02 
93.126   5.01000000e+02 
93.090   5.71000000e+02 
93.054   6.12000000e+02 
93.018   5.69000000e+02 
92.982   6.49000000e+02 
92.946   6.95000000e+02 
92.910   6.74000000e+02 
92.874   7.31000000e+02 
92.838   7.00000000e+02 
92.802   7.32000000e+02 
92.766   8.01000000e+02 
92.730   8.50000000e+02 
92.695   8.58000000e+02 
92.659   8.63000000e+02 
92.623   8.85000000e+02 
92.587   9.77000000e+02 
92.551   1.05500000e+03 
92.515   1.03500000e+03 
92.479   1.10900000e+03 
92.443   1.15600000e+03 
92.407   1.23800000e+03 
92.371   1.28900000e+03 
92.335   1.27900000e+03 
92.299   1.32300000e+03 
92.263   1.33100000e+03 
92.227   1.44400000e+03 
92.191   1.44900000e+03 
92.155   1.52700000e+03 
92.120   1.59600000e+03 
92.084   1.65600000e+03 
92.048   1.65300000e+03 
92.012   1.80100000e+03 
91.976   1.78500000e+03 
91.940   1.86200000e+03 
91.904   1.93400000e+03 
91.868   1.92000000e+03 
91.832   1.93400000e+03 
91.796   2.00200000e+03 
91.760   2.06600000e+03 
91.724   2.11600000e+03 
91.688   2.07500000e+03 
91.652   2.01800000e+03 
91.616   2.02700000e+03 
91.580   1.96600000e+03 
91.545   1.97300000e+03 
91.509   1.92300000e+03 
91.473   1.90600000e+03 
91.437   1.76500000e+03 
91.401   1.72500000e+03 
91.365   1.60000000e+03 
91.329   1.51100000e+03 
91.293   1.38400000e+03 
91.257   1.27400000e+03 
91.221   1.15900000e+03 
91.185   1.12300000e+03 
91.149   9.58000000e+02 
91.113   8.80000000e+02 
91.077   7.80000000e+02 
91.041   7.25000000e+02 
91.005   6.83000000e+02 
90.970   6.06000000e+02 
90.934   5.49000000e+02 
90.898   4.66000000e+02 
90.862   4.37000000e+02 
90.826   4.08000000e+02 
90.790   3.56000000e+02 
90.754   3.48000000e+02 
90.718   3.35000000e+02 
90.682   3.05000000e+02 
90.646   2.89000000e+02 
90.610   2.87000000e+02 
90.574   2.69000000e+02 
90.538   2.57000000e+02 
90.502   2.62000000e+02 
90.466   2.12000000e+02 
90.430   2.35000000e+02 
90.395   2.53000000e+02 
90.359   2.30000000e+02 
90.323   2.07000000e+02 
90.287   2.07000000e+02 
90.251   1.98000000e+02 
90.215   2.00000000e+02 
90.179   1.92000000e+02 
90.143   1.94000000e+02 
90.107   2.05000000e+02 
90.071   1.89000000e+02 
90.035   1.68000000e+02 
89.999   1.73000000e+02 
89.963   1.48000000e+02 
89.927   1.92000000e+02 
89.891   1.77000000e+02 
89.855   1.34000000e+02 
89.820   1.57000000e+02 
89.784   1.52000000e+02 
89.748   1.36000000e+02 
89.712   1.54000000e+02 
89.676   1.59000000e+02 
89.640   1.40000000e+02 
89.604   1.60000000e+02 
89.568   1.58000000e+02 
89.532   1.32000000e+02 
89.496   1.49000000e+02 
89.460   1.53000000e+02 
89.424   1.36000000e+02 
89.388   1.71000000e+02 
89.352   1.21000000e+02 
89.316   1.55000000e+02 
89.280   1.46000000e+02 
89.245   1.38000000e+02 
89.209   1.25000000e+02 
89.173   1.28000000e+02 
89.137   1.32000000e+02 
89.101   1.35000000e+02 
89.065   1.33000000e+02 
89.029   1.38000000e+02 
88.993   1.37000000e+02 
88.957   1.36000000e+02 
88.921   1.37000000e+02 
88.885   1.17000000e+02 
88.849   1.32000000e+02 
88.813   1.28000000e+02 
88.777   1.28000000e+02 
88.741   1.39000000e+02 
88.705   1.15000000e+02 
88.670   1.44000000e+02 
88.634   1.43000000e+02 
88.598   1.21000000e+02 
88.562   1.37000000e+02 
88.526   1.21000000e+02 
88.490   1.16000000e+02 
88.454   1.34000000e+02 
88.418   1.23000000e+02 
88.382   1.38000000e+02 
88.346   1.31000000e+02 
88.310   1.18000000e+02 
88.274   1.26000000e+02 
88.238   1.28000000e+02 
88.202   1.12000000e+02 
88.166   1.07000000e+02 
88.130   1.31000000e+02 
88.095   1.49000000e+02 
88.059   1.13000000e+02 
88.023   1.22000000e+02 

