EXPERIMENT FILE
Version = 2

[ Experiment Parameters ]
Experiment Description= <none> 
Number_of_Regions_in_Experiment= 1 

Original_File_name= C:\alexesca\data\10302012_Au _4f_56nuetral-26_Mono285.xps 
Instrument= HP ESCA West
Date= 10-30-2012
Time=  16:32:57

[ Layer Parameters ]
Layer_Type= XPS

[ Region 1 Parameters ]
Region_Description = Au 4f Dithered Scan                
BEcenter(eV) = 93.000000
BEwidth(eV) = 10.000000
BEstep(eV) = 0.035937
Dwell_Time(sec) = 1.000000
N_o_scans = 1  
N_o_Channels = 278  
Scan_mode = 0  (DITHERED)

[ L= 1 R= 1 ]
BEcenter= 93.000  
BEwidth= -9.955  
Excitation= 1486.600
Time_p_channel= 256.000 
Size= 278
97.977   1.43000000e+02 
97.941   1.32000000e+02 
97.905   1.57000000e+02 
97.870   1.22000000e+02 
97.834   1.37000000e+02 
97.798   1.44000000e+02 
97.762   1.55000000e+02 
97.726   1.42000000e+02 
97.690   1.20000000e+02 
97.654   1.48000000e+02 
97.618   1.48000000e+02 
97.582   1.50000000e+02 
97.546   1.45000000e+02 
97.510   1.55000000e+02 
97.474   1.27000000e+02 
97.438   1.38000000e+02 
97.402   1.30000000e+02 
97.366   1.42000000e+02 
97.330   1.40000000e+02 
97.295   1.57000000e+02 
97.259   1.22000000e+02 
97.223   1.41000000e+02 
97.187   1.51000000e+02 
97.151   1.65000000e+02 
97.115   1.58000000e+02 
97.079   1.53000000e+02 
97.043   1.81000000e+02 
97.007   1.59000000e+02 
96.971   1.60000000e+02 
96.935   1.57000000e+02 
96.899   1.57000000e+02 
96.863   1.70000000e+02 
96.827   1.97000000e+02 
96.791   1.76000000e+02 
96.755   2.03000000e+02 
96.720   1.82000000e+02 
96.684   1.89000000e+02 
96.648   2.04000000e+02 
96.612   2.06000000e+02 
96.576   2.27000000e+02 
96.540   2.34000000e+02 
96.504   2.31000000e+02 
96.468   2.44000000e+02 
96.432   2.48000000e+02 
96.396   2.57000000e+02 
96.360   2.66000000e+02 
96.324   2.78000000e+02 
96.288   2.95000000e+02 
96.252   3.28000000e+02 
96.216   3.20000000e+02 
96.180   3.49000000e+02 
96.145   3.59000000e+02 
96.109   3.51000000e+02 
96.073   4.12000000e+02 
96.037   4.19000000e+02 
96.001   4.26000000e+02 
95.965   4.57000000e+02 
95.929   4.23000000e+02 
95.893   4.71000000e+02 
95.857   4.69000000e+02 
95.821   5.04000000e+02 
95.785   5.45000000e+02 
95.749   5.29000000e+02 
95.713   6.06000000e+02 
95.677   5.77000000e+02 
95.641   6.38000000e+02 
95.605   6.23000000e+02 
95.570   7.03000000e+02 
95.534   7.16000000e+02 
95.498   6.81000000e+02 
95.462   6.76000000e+02 
95.426   6.88000000e+02 
95.390   7.63000000e+02 
95.354   7.17000000e+02 
95.318   7.27000000e+02 
95.282   7.08000000e+02 
95.246   6.88000000e+02 
95.210   6.75000000e+02 
95.174   6.05000000e+02 
95.138   6.01000000e+02 
95.102   5.38000000e+02 
95.066   5.58000000e+02 
95.030   5.34000000e+02 
94.995   4.21000000e+02 
94.959   4.22000000e+02 
94.923   3.83000000e+02 
94.887   3.66000000e+02 
94.851   3.05000000e+02 
94.815   2.98000000e+02 
94.779   2.59000000e+02 
94.743   2.55000000e+02 
94.707   2.42000000e+02 
94.671   2.24000000e+02 
94.635   2.18000000e+02 
94.599   2.14000000e+02 
94.563   1.83000000e+02 
94.527   1.81000000e+02 
94.491   1.63000000e+02 
94.455   1.85000000e+02 
94.420   1.63000000e+02 
94.384   1.66000000e+02 
94.348   1.48000000e+02 
94.312   1.48000000e+02 
94.276   1.52000000e+02 
94.240   1.60000000e+02 
94.204   1.38000000e+02 
94.168   1.40000000e+02 
94.132   1.30000000e+02 
94.096   1.44000000e+02 
94.060   1.49000000e+02 
94.024   1.49000000e+02 
93.988   1.45000000e+02 
93.952   1.46000000e+02 
93.916   1.40000000e+02 
93.880   1.30000000e+02 
93.845   1.26000000e+02 
93.809   1.49000000e+02 
93.773   1.55000000e+02 
93.737   1.50000000e+02 
93.701   1.50000000e+02 
93.665   1.40000000e+02 
93.629   1.47000000e+02 
93.593   1.37000000e+02 
93.557   1.48000000e+02 
93.521   1.55000000e+02 
93.485   1.35000000e+02 
93.449   1.43000000e+02 
93.413   1.27000000e+02 
93.377   1.42000000e+02 
93.341   1.78000000e+02 
93.305   1.75000000e+02 
93.270   1.57000000e+02 
93.234   1.64000000e+02 
93.198   1.74000000e+02 
93.162   1.94000000e+02 
93.126   1.60000000e+02 
93.090   1.97000000e+02 
93.054   2.00000000e+02 
93.018   2.16000000e+02 
92.982   1.97000000e+02 
92.946   2.17000000e+02 
92.910   2.44000000e+02 
92.874   2.37000000e+02 
92.838   2.33000000e+02 
92.802   2.59000000e+02 
92.766   2.67000000e+02 
92.730   2.95000000e+02 
92.695   3.11000000e+02 
92.659   3.34000000e+02 
92.623   3.14000000e+02 
92.587   3.25000000e+02 
92.551   3.63000000e+02 
92.515   3.58000000e+02 
92.479   3.67000000e+02 
92.443   4.45000000e+02 
92.407   4.08000000e+02 
92.371   4.59000000e+02 
92.335   5.22000000e+02 
92.299   4.81000000e+02 
92.263   5.37000000e+02 
92.227   5.54000000e+02 
92.191   5.81000000e+02 
92.155   5.90000000e+02 
92.120   6.06000000e+02 
92.084   6.39000000e+02 
92.048   6.76000000e+02 
92.012   6.82000000e+02 
91.976   7.96000000e+02 
91.940   8.18000000e+02 
91.904   8.16000000e+02 
91.868   8.64000000e+02 
91.832   8.41000000e+02 
91.796   8.69000000e+02 
91.760   9.03000000e+02 
91.724   9.03000000e+02 
91.688   9.29000000e+02 
91.652   8.73000000e+02 
91.616   8.67000000e+02 
91.580   8.81000000e+02 
91.545   8.17000000e+02 
91.509   8.36000000e+02 
91.473   7.42000000e+02 
91.437   6.67000000e+02 
91.401   6.13000000e+02 
91.365   5.84000000e+02 
91.329   5.40000000e+02 
91.293   4.99000000e+02 
91.257   4.34000000e+02 
91.221   3.59000000e+02 
91.185   3.64000000e+02 
91.149   3.02000000e+02 
91.113   3.09000000e+02 
91.077   2.71000000e+02 
91.041   2.09000000e+02 
91.005   2.05000000e+02 
90.970   2.05000000e+02 
90.934   1.49000000e+02 
90.898   1.56000000e+02 
90.862   1.60000000e+02 
90.826   1.46000000e+02 
90.790   1.22000000e+02 
90.754   1.29000000e+02 
90.718   1.31000000e+02 
90.682   1.01000000e+02 
90.646   1.14000000e+02 
90.610   1.06000000e+02 
90.574   9.00000000e+01 
90.538   8.00000000e+01 
90.502   8.60000000e+01 
90.466   9.60000000e+01 
90.430   9.50000000e+01 
90.395   8.20000000e+01 
90.359   8.00000000e+01 
90.323   8.60000000e+01 
90.287   8.40000000e+01 
90.251   6.80000000e+01 
90.215   8.10000000e+01 
90.179   8.20000000e+01 
90.143   8.70000000e+01 
90.107   8.80000000e+01 
90.071   7.90000000e+01 
90.035   6.20000000e+01 
89.999   6.70000000e+01 
89.963   6.70000000e+01 
89.927   7.60000000e+01 
89.891   6.20000000e+01 
89.855   7.20000000e+01 
89.820   7.70000000e+01 
89.784   7.40000000e+01 
89.748   7.90000000e+01 
89.712   7.50000000e+01 
89.676   8.00000000e+01 
89.640   6.50000000e+01 
89.604   8.00000000e+01 
89.568   5.90000000e+01 
89.532   6.10000000e+01 
89.496   7.00000000e+01 
89.460   7.10000000e+01 
89.424   6.10000000e+01 
89.388   5.50000000e+01 
89.352   5.60000000e+01 
89.316   5.60000000e+01 
89.280   5.30000000e+01 
89.245   7.00000000e+01 
89.209   5.90000000e+01 
89.173   6.10000000e+01 
89.137   4.80000000e+01 
89.101   7.80000000e+01 
89.065   6.60000000e+01 
89.029   6.50000000e+01 
88.993   5.60000000e+01 
88.957   6.10000000e+01 
88.921   5.50000000e+01 
88.885   6.60000000e+01 
88.849   5.30000000e+01 
88.813   6.90000000e+01 
88.777   7.50000000e+01 
88.741   6.30000000e+01 
88.705   6.60000000e+01 
88.670   4.80000000e+01 
88.634   6.90000000e+01 
88.598   5.00000000e+01 
88.562   6.90000000e+01 
88.526   5.60000000e+01 
88.490   6.70000000e+01 
88.454   5.20000000e+01 
88.418   5.80000000e+01 
88.382   6.00000000e+01 
88.346   5.50000000e+01 
88.310   5.00000000e+01 
88.274   6.50000000e+01 
88.238   6.80000000e+01 
88.202   6.30000000e+01 
88.166   6.60000000e+01 
88.130   5.30000000e+01 
88.095   4.30000000e+01 
88.059   5.40000000e+01 
88.023   4.90000000e+01 

