EXPERIMENT FILE
Version = 2

[ Experiment Parameters ]
Experiment Description= <none> 
Number_of_Regions_in_Experiment= 1 

Original_File_name= C:\alexesca\data\10302012_Au _4f_56nuetral-6_Mono282.xps 
Instrument= HP ESCA West
Date= 10-30-2012
Time=  17:32:49

[ Layer Parameters ]
Layer_Type= XPS

[ Region 1 Parameters ]
Region_Description = Au 4f Dithered Scan                
BEcenter(eV) = 93.000000
BEwidth(eV) = 10.000000
BEstep(eV) = 0.035937
Dwell_Time(sec) = 1.000000
N_o_scans = 1  
N_o_Channels = 278  
Scan_mode = 0  (DITHERED)

[ L= 1 R= 1 ]
BEcenter= 93.000  
BEwidth= -9.955  
Excitation= 1486.600
Time_p_channel= 256.000 
Size= 278
97.977   3.23000000e+02 
97.941   3.09000000e+02 
97.905   2.91000000e+02 
97.870   3.21000000e+02 
97.834   3.08000000e+02 
97.798   3.09000000e+02 
97.762   3.49000000e+02 
97.726   3.40000000e+02 
97.690   2.97000000e+02 
97.654   2.96000000e+02 
97.618   3.37000000e+02 
97.582   3.27000000e+02 
97.546   3.52000000e+02 
97.510   3.43000000e+02 
97.474   3.60000000e+02 
97.438   4.07000000e+02 
97.402   4.09000000e+02 
97.366   3.73000000e+02 
97.330   3.92000000e+02 
97.295   3.81000000e+02 
97.259   4.06000000e+02 
97.223   3.62000000e+02 
97.187   3.99000000e+02 
97.151   4.10000000e+02 
97.115   4.03000000e+02 
97.079   4.44000000e+02 
97.043   4.15000000e+02 
97.007   4.53000000e+02 
96.971   4.47000000e+02 
96.935   4.98000000e+02 
96.899   4.38000000e+02 
96.863   5.06000000e+02 
96.827   4.92000000e+02 
96.791   5.28000000e+02 
96.755   5.60000000e+02 
96.720   5.19000000e+02 
96.684   5.42000000e+02 
96.648   5.78000000e+02 
96.612   6.12000000e+02 
96.576   6.03000000e+02 
96.540   6.41000000e+02 
96.504   6.05000000e+02 
96.468   6.84000000e+02 
96.432   7.05000000e+02 
96.396   7.43000000e+02 
96.360   6.99000000e+02 
96.324   8.06000000e+02 
96.288   8.34000000e+02 
96.252   8.72000000e+02 
96.216   8.50000000e+02 
96.180   9.67000000e+02 
96.145   9.82000000e+02 
96.109   9.87000000e+02 
96.073   1.00300000e+03 
96.037   1.05000000e+03 
96.001   1.11300000e+03 
95.965   1.16800000e+03 
95.929   1.16300000e+03 
95.893   1.22700000e+03 
95.857   1.25800000e+03 
95.821   1.23900000e+03 
95.785   1.27600000e+03 
95.749   1.31600000e+03 
95.713   1.39500000e+03 
95.677   1.40200000e+03 
95.641   1.46000000e+03 
95.605   1.50600000e+03 
95.570   1.53300000e+03 
95.534   1.59500000e+03 
95.498   1.50500000e+03 
95.462   1.65300000e+03 
95.426   1.69500000e+03 
95.390   1.71500000e+03 
95.354   1.63400000e+03 
95.318   1.61400000e+03 
95.282   1.68400000e+03 
95.246   1.61700000e+03 
95.210   1.55500000e+03 
95.174   1.58900000e+03 
95.138   1.58800000e+03 
95.102   1.49700000e+03 
95.066   1.42800000e+03 
95.030   1.28300000e+03 
94.995   1.28600000e+03 
94.959   1.17400000e+03 
94.923   1.10200000e+03 
94.887   1.07200000e+03 
94.851   9.34000000e+02 
94.815   8.69000000e+02 
94.779   8.02000000e+02 
94.743   7.81000000e+02 
94.707   6.70000000e+02 
94.671   6.73000000e+02 
94.635   6.12000000e+02 
94.599   5.73000000e+02 
94.563   5.80000000e+02 
94.527   5.12000000e+02 
94.491   4.59000000e+02 
94.455   4.55000000e+02 
94.420   4.64000000e+02 
94.384   4.29000000e+02 
94.348   3.95000000e+02 
94.312   4.08000000e+02 
94.276   3.78000000e+02 
94.240   3.91000000e+02 
94.204   3.54000000e+02 
94.168   3.79000000e+02 
94.132   3.48000000e+02 
94.096   3.78000000e+02 
94.060   3.47000000e+02 
94.024   3.48000000e+02 
93.988   3.59000000e+02 
93.952   3.42000000e+02 
93.916   3.34000000e+02 
93.880   3.21000000e+02 
93.845   3.60000000e+02 
93.809   3.49000000e+02 
93.773   3.68000000e+02 
93.737   3.62000000e+02 
93.701   3.62000000e+02 
93.665   3.38000000e+02 
93.629   3.42000000e+02 
93.593   3.79000000e+02 
93.557   3.65000000e+02 
93.521   3.86000000e+02 
93.485   3.60000000e+02 
93.449   3.80000000e+02 
93.413   4.24000000e+02 
93.377   4.23000000e+02 
93.341   4.25000000e+02 
93.305   4.24000000e+02 
93.270   4.23000000e+02 
93.234   4.61000000e+02 
93.198   5.10000000e+02 
93.162   5.55000000e+02 
93.126   5.21000000e+02 
93.090   5.32000000e+02 
93.054   6.12000000e+02 
93.018   5.57000000e+02 
92.982   5.81000000e+02 
92.946   6.11000000e+02 
92.910   6.80000000e+02 
92.874   7.14000000e+02 
92.838   7.01000000e+02 
92.802   7.27000000e+02 
92.766   7.54000000e+02 
92.730   8.15000000e+02 
92.695   8.34000000e+02 
92.659   8.52000000e+02 
92.623   9.12000000e+02 
92.587   8.73000000e+02 
92.551   9.40000000e+02 
92.515   9.83000000e+02 
92.479   1.02300000e+03 
92.443   1.13600000e+03 
92.407   1.11600000e+03 
92.371   1.19000000e+03 
92.335   1.20700000e+03 
92.299   1.31200000e+03 
92.263   1.30200000e+03 
92.227   1.37000000e+03 
92.191   1.48100000e+03 
92.155   1.37600000e+03 
92.120   1.53900000e+03 
92.084   1.61700000e+03 
92.048   1.64400000e+03 
92.012   1.66800000e+03 
91.976   1.78500000e+03 
91.940   1.83100000e+03 
91.904   1.85400000e+03 
91.868   1.93200000e+03 
91.832   1.89900000e+03 
91.796   1.90200000e+03 
91.760   1.96700000e+03 
91.724   2.00500000e+03 
91.688   2.03800000e+03 
91.652   2.01000000e+03 
91.616   1.98500000e+03 
91.580   1.95700000e+03 
91.545   1.92400000e+03 
91.509   1.99200000e+03 
91.473   1.78600000e+03 
91.437   1.74200000e+03 
91.401   1.73100000e+03 
91.365   1.60100000e+03 
91.329   1.55400000e+03 
91.293   1.43400000e+03 
91.257   1.26000000e+03 
91.221   1.24000000e+03 
91.185   1.14800000e+03 
91.149   1.03800000e+03 
91.113   9.64000000e+02 
91.077   8.23000000e+02 
91.041   7.63000000e+02 
91.005   6.78000000e+02 
90.970   6.14000000e+02 
90.934   6.02000000e+02 
90.898   5.10000000e+02 
90.862   4.59000000e+02 
90.826   4.24000000e+02 
90.790   4.07000000e+02 
90.754   3.79000000e+02 
90.718   3.63000000e+02 
90.682   3.16000000e+02 
90.646   2.84000000e+02 
90.610   3.00000000e+02 
90.574   2.58000000e+02 
90.538   2.36000000e+02 
90.502   2.71000000e+02 
90.466   2.54000000e+02 
90.430   2.21000000e+02 
90.395   2.31000000e+02 
90.359   2.31000000e+02 
90.323   2.28000000e+02 
90.287   2.02000000e+02 
90.251   2.05000000e+02 
90.215   1.94000000e+02 
90.179   1.79000000e+02 
90.143   1.71000000e+02 
90.107   1.82000000e+02 
90.071   1.52000000e+02 
90.035   1.85000000e+02 
89.999   1.59000000e+02 
89.963   2.07000000e+02 
89.927   1.55000000e+02 
89.891   1.82000000e+02 
89.855   1.71000000e+02 
89.820   1.67000000e+02 
89.784   1.61000000e+02 
89.748   1.52000000e+02 
89.712   1.55000000e+02 
89.676   1.46000000e+02 
89.640   1.30000000e+02 
89.604   1.67000000e+02 
89.568   1.35000000e+02 
89.532   1.58000000e+02 
89.496   1.38000000e+02 
89.460   1.42000000e+02 
89.424   1.63000000e+02 
89.388   1.57000000e+02 
89.352   1.29000000e+02 
89.316   1.37000000e+02 
89.280   1.28000000e+02 
89.245   1.47000000e+02 
89.209   1.47000000e+02 
89.173   1.31000000e+02 
89.137   1.51000000e+02 
89.101   1.45000000e+02 
89.065   1.43000000e+02 
89.029   1.14000000e+02 
88.993   1.35000000e+02 
88.957   1.32000000e+02 
88.921   1.26000000e+02 
88.885   1.31000000e+02 
88.849   1.31000000e+02 
88.813   1.29000000e+02 
88.777   1.23000000e+02 
88.741   1.37000000e+02 
88.705   1.20000000e+02 
88.670   1.48000000e+02 
88.634   1.46000000e+02 
88.598   1.39000000e+02 
88.562   1.42000000e+02 
88.526   1.13000000e+02 
88.490   1.28000000e+02 
88.454   1.11000000e+02 
88.418   1.40000000e+02 
88.382   9.10000000e+01 
88.346   1.18000000e+02 
88.310   1.18000000e+02 
88.274   1.08000000e+02 
88.238   1.24000000e+02 
88.202   1.15000000e+02 
88.166   1.41000000e+02 
88.130   1.42000000e+02 
88.095   1.23000000e+02 
88.059   1.39000000e+02 
88.023   1.16000000e+02 

