EXPERIMENT FILE
Version = 2

[ Experiment Parameters ]
Experiment Description= <none> 
Number_of_Regions_in_Experiment= 1 

Original_File_name= C:\alexesca\data\10312012_Au _4f_56nuetral+14_Mono265.xps 
Instrument= HP ESCA West
Date= 10-31-2012
Time=  14:52:50

[ Layer Parameters ]
Layer_Type= XPS

[ Region 1 Parameters ]
Region_Description = Au 4f Dithered Scan                
BEcenter(eV) = 93.000000
BEwidth(eV) = 10.000000
BEstep(eV) = 0.035937
Dwell_Time(sec) = 1.000000
N_o_scans = 1  
N_o_Channels = 278  
Scan_mode = 0  (DITHERED)

[ L= 1 R= 1 ]
BEcenter= 93.000  
BEwidth= -9.955  
Excitation= 1486.600
Time_p_channel= 256.000 
Size= 278
97.977   5.45000000e+02 
97.941   6.04000000e+02 
97.905   5.51000000e+02 
97.870   5.55000000e+02 
97.834   5.81000000e+02 
97.798   5.97000000e+02 
97.762   6.18000000e+02 
97.726   6.30000000e+02 
97.690   6.22000000e+02 
97.654   6.18000000e+02 
97.618   6.60000000e+02 
97.582   6.61000000e+02 
97.546   6.47000000e+02 
97.510   7.09000000e+02 
97.474   7.65000000e+02 
97.438   7.21000000e+02 
97.402   7.09000000e+02 
97.366   7.96000000e+02 
97.330   7.61000000e+02 
97.295   7.94000000e+02 
97.259   8.08000000e+02 
97.223   8.24000000e+02 
97.187   8.32000000e+02 
97.151   8.84000000e+02 
97.115   9.41000000e+02 
97.079   9.55000000e+02 
97.043   9.41000000e+02 
97.007   9.71000000e+02 
96.971   9.64000000e+02 
96.935   1.01000000e+03 
96.899   1.05100000e+03 
96.863   1.08100000e+03 
96.827   1.15100000e+03 
96.791   1.22800000e+03 
96.755   1.18900000e+03 
96.720   1.30100000e+03 
96.684   1.29100000e+03 
96.648   1.31700000e+03 
96.612   1.32700000e+03 
96.576   1.40500000e+03 
96.540   1.40600000e+03 
96.504   1.53100000e+03 
96.468   1.56300000e+03 
96.432   1.54900000e+03 
96.396   1.60400000e+03 
96.360   1.64600000e+03 
96.324   1.72800000e+03 
96.288   1.81900000e+03 
96.252   1.86200000e+03 
96.216   1.77100000e+03 
96.180   1.96100000e+03 
96.145   1.97000000e+03 
96.109   2.04800000e+03 
96.073   2.03400000e+03 
96.037   2.08200000e+03 
96.001   2.03500000e+03 
95.965   2.15600000e+03 
95.929   2.18500000e+03 
95.893   2.31300000e+03 
95.857   2.15900000e+03 
95.821   2.35500000e+03 
95.785   2.33000000e+03 
95.749   2.39100000e+03 
95.713   2.40700000e+03 
95.677   2.43900000e+03 
95.641   2.48500000e+03 
95.605   2.52800000e+03 
95.570   2.53800000e+03 
95.534   2.55400000e+03 
95.498   2.50900000e+03 
95.462   2.55800000e+03 
95.426   2.47700000e+03 
95.390   2.49400000e+03 
95.354   2.50100000e+03 
95.318   2.42300000e+03 
95.282   2.37200000e+03 
95.246   2.34000000e+03 
95.210   2.26300000e+03 
95.174   2.32800000e+03 
95.138   2.13500000e+03 
95.102   2.05700000e+03 
95.066   2.00300000e+03 
95.030   1.87700000e+03 
94.995   1.71000000e+03 
94.959   1.63500000e+03 
94.923   1.53000000e+03 
94.887   1.45500000e+03 
94.851   1.44200000e+03 
94.815   1.30400000e+03 
94.779   1.13900000e+03 
94.743   1.10100000e+03 
94.707   1.08100000e+03 
94.671   1.01000000e+03 
94.635   8.67000000e+02 
94.599   8.89000000e+02 
94.563   8.42000000e+02 
94.527   7.58000000e+02 
94.491   7.51000000e+02 
94.455   7.18000000e+02 
94.420   6.87000000e+02 
94.384   6.74000000e+02 
94.348   7.20000000e+02 
94.312   7.01000000e+02 
94.276   6.33000000e+02 
94.240   6.24000000e+02 
94.204   6.47000000e+02 
94.168   6.59000000e+02 
94.132   6.42000000e+02 
94.096   6.80000000e+02 
94.060   6.33000000e+02 
94.024   6.28000000e+02 
93.988   6.68000000e+02 
93.952   6.51000000e+02 
93.916   6.72000000e+02 
93.880   6.67000000e+02 
93.845   7.16000000e+02 
93.809   7.65000000e+02 
93.773   7.64000000e+02 
93.737   7.94000000e+02 
93.701   7.92000000e+02 
93.665   8.07000000e+02 
93.629   8.02000000e+02 
93.593   8.78000000e+02 
93.557   8.69000000e+02 
93.521   8.46000000e+02 
93.485   9.37000000e+02 
93.449   9.41000000e+02 
93.413   9.76000000e+02 
93.377   9.35000000e+02 
93.341   9.98000000e+02 
93.305   1.08400000e+03 
93.270   1.12700000e+03 
93.234   1.12500000e+03 
93.198   1.22900000e+03 
93.162   1.21800000e+03 
93.126   1.28500000e+03 
93.090   1.33200000e+03 
93.054   1.37500000e+03 
93.018   1.38100000e+03 
92.982   1.45800000e+03 
92.946   1.55100000e+03 
92.910   1.53700000e+03 
92.874   1.58000000e+03 
92.838   1.63300000e+03 
92.802   1.75000000e+03 
92.766   1.84400000e+03 
92.730   1.89500000e+03 
92.695   1.84700000e+03 
92.659   1.94600000e+03 
92.623   1.97400000e+03 
92.587   2.11900000e+03 
92.551   2.12200000e+03 
92.515   2.15100000e+03 
92.479   2.22700000e+03 
92.443   2.26900000e+03 
92.407   2.36500000e+03 
92.371   2.35300000e+03 
92.335   2.47800000e+03 
92.299   2.58300000e+03 
92.263   2.53600000e+03 
92.227   2.61600000e+03 
92.191   2.74500000e+03 
92.155   2.63100000e+03 
92.120   2.78900000e+03 
92.084   2.87700000e+03 
92.048   2.83300000e+03 
92.012   2.91500000e+03 
91.976   2.96500000e+03 
91.940   2.95000000e+03 
91.904   2.94800000e+03 
91.868   2.95000000e+03 
91.832   3.03100000e+03 
91.796   2.97200000e+03 
91.760   3.00400000e+03 
91.724   3.02900000e+03 
91.688   2.93400000e+03 
91.652   2.87300000e+03 
91.616   2.90400000e+03 
91.580   2.72800000e+03 
91.545   2.72400000e+03 
91.509   2.58100000e+03 
91.473   2.51400000e+03 
91.437   2.36800000e+03 
91.401   2.26900000e+03 
91.365   2.06500000e+03 
91.329   1.98300000e+03 
91.293   1.82900000e+03 
91.257   1.76900000e+03 
91.221   1.57300000e+03 
91.185   1.51000000e+03 
91.149   1.30100000e+03 
91.113   1.21000000e+03 
91.077   1.14800000e+03 
91.041   9.70000000e+02 
91.005   8.68000000e+02 
90.970   8.38000000e+02 
90.934   7.09000000e+02 
90.898   7.01000000e+02 
90.862   5.89000000e+02 
90.826   5.95000000e+02 
90.790   5.67000000e+02 
90.754   5.27000000e+02 
90.718   5.03000000e+02 
90.682   4.63000000e+02 
90.646   4.15000000e+02 
90.610   3.81000000e+02 
90.574   3.74000000e+02 
90.538   3.80000000e+02 
90.502   3.88000000e+02 
90.466   3.71000000e+02 
90.430   3.46000000e+02 
90.395   3.45000000e+02 
90.359   3.09000000e+02 
90.323   3.15000000e+02 
90.287   3.09000000e+02 
90.251   2.87000000e+02 
90.215   2.85000000e+02 
90.179   2.94000000e+02 
90.143   2.79000000e+02 
90.107   2.71000000e+02 
90.071   2.99000000e+02 
90.035   3.04000000e+02 
89.999   2.67000000e+02 
89.963   2.91000000e+02 
89.927   2.57000000e+02 
89.891   2.28000000e+02 
89.855   2.29000000e+02 
89.820   2.36000000e+02 
89.784   2.46000000e+02 
89.748   2.40000000e+02 
89.712   2.44000000e+02 
89.676   2.47000000e+02 
89.640   2.31000000e+02 
89.604   2.26000000e+02 
89.568   2.04000000e+02 
89.532   2.15000000e+02 
89.496   2.36000000e+02 
89.460   2.26000000e+02 
89.424   2.07000000e+02 
89.388   2.32000000e+02 
89.352   2.19000000e+02 
89.316   2.48000000e+02 
89.280   2.09000000e+02 
89.245   2.15000000e+02 
89.209   2.44000000e+02 
89.173   2.22000000e+02 
89.137   1.87000000e+02 
89.101   2.12000000e+02 
89.065   2.15000000e+02 
89.029   2.02000000e+02 
88.993   2.18000000e+02 
88.957   2.04000000e+02 
88.921   2.14000000e+02 
88.885   2.11000000e+02 
88.849   2.04000000e+02 
88.813   1.73000000e+02 
88.777   2.11000000e+02 
88.741   2.00000000e+02 
88.705   1.89000000e+02 
88.670   1.69000000e+02 
88.634   2.10000000e+02 
88.598   1.94000000e+02 
88.562   1.97000000e+02 
88.526   1.94000000e+02 
88.490   1.83000000e+02 
88.454   1.98000000e+02 
88.418   1.90000000e+02 
88.382   2.28000000e+02 
88.346   1.97000000e+02 
88.310   1.84000000e+02 
88.274   1.94000000e+02 
88.238   2.02000000e+02 
88.202   2.01000000e+02 
88.166   2.05000000e+02 
88.130   1.95000000e+02 
88.095   2.00000000e+02 
88.059   1.93000000e+02 
88.023   2.05000000e+02 

