EXPERIMENT FILE
Version = 2

[ Experiment Parameters ]
Experiment Description= <none> 
Number_of_Regions_in_Experiment= 1 

Original_File_name= C:\alexesca\data\10312012_Au _4f_56nuetral-6_Mono280.xps 
Instrument= HP ESCA West
Date= 10-31-2012
Time=  13:39:02

[ Layer Parameters ]
Layer_Type= XPS

[ Region 1 Parameters ]
Region_Description = Au 4f Dithered Scan                
BEcenter(eV) = 93.000000
BEwidth(eV) = 10.000000
BEstep(eV) = 0.035937
Dwell_Time(sec) = 1.000000
N_o_scans = 1  
N_o_Channels = 278  
Scan_mode = 0  (DITHERED)

[ L= 1 R= 1 ]
BEcenter= 93.000  
BEwidth= -9.955  
Excitation= 1486.600
Time_p_channel= 256.000 
Size= 278
97.977   3.02000000e+02 
97.941   3.57000000e+02 
97.905   3.24000000e+02 
97.870   3.48000000e+02 
97.834   3.42000000e+02 
97.798   3.16000000e+02 
97.762   3.31000000e+02 
97.726   3.24000000e+02 
97.690   3.35000000e+02 
97.654   3.44000000e+02 
97.618   3.36000000e+02 
97.582   3.46000000e+02 
97.546   3.44000000e+02 
97.510   3.72000000e+02 
97.474   3.52000000e+02 
97.438   3.42000000e+02 
97.402   3.90000000e+02 
97.366   4.02000000e+02 
97.330   4.26000000e+02 
97.295   4.27000000e+02 
97.259   4.41000000e+02 
97.223   4.23000000e+02 
97.187   4.26000000e+02 
97.151   4.29000000e+02 
97.115   4.49000000e+02 
97.079   4.64000000e+02 
97.043   4.87000000e+02 
97.007   4.61000000e+02 
96.971   4.99000000e+02 
96.935   5.39000000e+02 
96.899   5.46000000e+02 
96.863   5.93000000e+02 
96.827   5.48000000e+02 
96.791   5.43000000e+02 
96.755   6.34000000e+02 
96.720   6.52000000e+02 
96.684   6.48000000e+02 
96.648   7.01000000e+02 
96.612   6.43000000e+02 
96.576   6.64000000e+02 
96.540   7.67000000e+02 
96.504   7.68000000e+02 
96.468   8.03000000e+02 
96.432   8.52000000e+02 
96.396   8.20000000e+02 
96.360   9.29000000e+02 
96.324   9.46000000e+02 
96.288   9.97000000e+02 
96.252   1.00900000e+03 
96.216   1.02900000e+03 
96.180   1.06900000e+03 
96.145   1.09900000e+03 
96.109   1.10200000e+03 
96.073   1.21500000e+03 
96.037   1.18500000e+03 
96.001   1.26300000e+03 
95.965   1.35500000e+03 
95.929   1.36000000e+03 
95.893   1.43300000e+03 
95.857   1.42700000e+03 
95.821   1.48900000e+03 
95.785   1.46200000e+03 
95.749   1.55400000e+03 
95.713   1.54200000e+03 
95.677   1.62400000e+03 
95.641   1.62900000e+03 
95.605   1.61100000e+03 
95.570   1.61800000e+03 
95.534   1.62500000e+03 
95.498   1.71000000e+03 
95.462   1.61300000e+03 
95.426   1.66300000e+03 
95.390   1.58700000e+03 
95.354   1.58500000e+03 
95.318   1.49400000e+03 
95.282   1.48100000e+03 
95.246   1.35600000e+03 
95.210   1.34600000e+03 
95.174   1.25300000e+03 
95.138   1.19500000e+03 
95.102   1.08800000e+03 
95.066   1.00900000e+03 
95.030   9.23000000e+02 
94.995   8.69000000e+02 
94.959   8.44000000e+02 
94.923   7.52000000e+02 
94.887   7.48000000e+02 
94.851   5.82000000e+02 
94.815   5.93000000e+02 
94.779   5.25000000e+02 
94.743   5.52000000e+02 
94.707   5.16000000e+02 
94.671   5.08000000e+02 
94.635   4.73000000e+02 
94.599   4.46000000e+02 
94.563   4.06000000e+02 
94.527   4.14000000e+02 
94.491   4.03000000e+02 
94.455   3.76000000e+02 
94.420   3.70000000e+02 
94.384   3.70000000e+02 
94.348   3.13000000e+02 
94.312   3.51000000e+02 
94.276   3.65000000e+02 
94.240   3.62000000e+02 
94.204   3.39000000e+02 
94.168   3.33000000e+02 
94.132   3.56000000e+02 
94.096   3.60000000e+02 
94.060   3.49000000e+02 
94.024   3.33000000e+02 
93.988   3.71000000e+02 
93.952   3.45000000e+02 
93.916   3.29000000e+02 
93.880   3.82000000e+02 
93.845   3.69000000e+02 
93.809   3.59000000e+02 
93.773   3.82000000e+02 
93.737   3.66000000e+02 
93.701   3.88000000e+02 
93.665   3.85000000e+02 
93.629   4.05000000e+02 
93.593   4.31000000e+02 
93.557   4.15000000e+02 
93.521   4.36000000e+02 
93.485   4.35000000e+02 
93.449   4.42000000e+02 
93.413   4.30000000e+02 
93.377   4.63000000e+02 
93.341   4.65000000e+02 
93.305   5.41000000e+02 
93.270   4.94000000e+02 
93.234   5.61000000e+02 
93.198   5.68000000e+02 
93.162   6.47000000e+02 
93.126   6.25000000e+02 
93.090   6.39000000e+02 
93.054   6.83000000e+02 
93.018   6.90000000e+02 
92.982   7.60000000e+02 
92.946   7.58000000e+02 
92.910   8.07000000e+02 
92.874   8.18000000e+02 
92.838   8.58000000e+02 
92.802   8.19000000e+02 
92.766   9.13000000e+02 
92.730   9.74000000e+02 
92.695   1.00400000e+03 
92.659   1.04600000e+03 
92.623   1.14600000e+03 
92.587   1.13200000e+03 
92.551   1.18300000e+03 
92.515   1.27200000e+03 
92.479   1.29000000e+03 
92.443   1.35400000e+03 
92.407   1.39900000e+03 
92.371   1.47400000e+03 
92.335   1.36800000e+03 
92.299   1.54800000e+03 
92.263   1.60000000e+03 
92.227   1.61000000e+03 
92.191   1.66000000e+03 
92.155   1.75200000e+03 
92.120   1.75200000e+03 
92.084   1.79700000e+03 
92.048   1.85600000e+03 
92.012   1.88600000e+03 
91.976   1.99400000e+03 
91.940   1.93800000e+03 
91.904   1.98900000e+03 
91.868   1.98400000e+03 
91.832   1.95300000e+03 
91.796   1.94900000e+03 
91.760   1.94400000e+03 
91.724   1.93000000e+03 
91.688   1.82600000e+03 
91.652   1.76900000e+03 
91.616   1.84100000e+03 
91.580   1.75000000e+03 
91.545   1.56700000e+03 
91.509   1.41700000e+03 
91.473   1.35000000e+03 
91.437   1.26100000e+03 
91.401   1.15300000e+03 
91.365   1.02900000e+03 
91.329   9.91000000e+02 
91.293   9.13000000e+02 
91.257   7.40000000e+02 
91.221   7.66000000e+02 
91.185   6.44000000e+02 
91.149   6.09000000e+02 
91.113   5.37000000e+02 
91.077   5.18000000e+02 
91.041   4.41000000e+02 
91.005   3.89000000e+02 
90.970   3.80000000e+02 
90.934   3.42000000e+02 
90.898   3.27000000e+02 
90.862   2.93000000e+02 
90.826   3.26000000e+02 
90.790   2.97000000e+02 
90.754   2.77000000e+02 
90.718   2.73000000e+02 
90.682   2.46000000e+02 
90.646   2.23000000e+02 
90.610   2.18000000e+02 
90.574   2.34000000e+02 
90.538   2.04000000e+02 
90.502   2.08000000e+02 
90.466   2.05000000e+02 
90.430   1.86000000e+02 
90.395   1.84000000e+02 
90.359   2.08000000e+02 
90.323   1.80000000e+02 
90.287   1.69000000e+02 
90.251   2.06000000e+02 
90.215   1.74000000e+02 
90.179   1.90000000e+02 
90.143   1.91000000e+02 
90.107   1.84000000e+02 
90.071   1.43000000e+02 
90.035   1.74000000e+02 
89.999   1.71000000e+02 
89.963   1.53000000e+02 
89.927   1.28000000e+02 
89.891   1.38000000e+02 
89.855   1.59000000e+02 
89.820   1.41000000e+02 
89.784   1.34000000e+02 
89.748   1.48000000e+02 
89.712   1.24000000e+02 
89.676   1.46000000e+02 
89.640   1.56000000e+02 
89.604   1.61000000e+02 
89.568   1.41000000e+02 
89.532   1.39000000e+02 
89.496   1.47000000e+02 
89.460   1.48000000e+02 
89.424   1.31000000e+02 
89.388   1.11000000e+02 
89.352   1.50000000e+02 
89.316   1.33000000e+02 
89.280   1.40000000e+02 
89.245   1.43000000e+02 
89.209   1.30000000e+02 
89.173   1.57000000e+02 
89.137   1.36000000e+02 
89.101   1.35000000e+02 
89.065   1.29000000e+02 
89.029   1.17000000e+02 
88.993   1.43000000e+02 
88.957   1.25000000e+02 
88.921   1.29000000e+02 
88.885   1.07000000e+02 
88.849   1.19000000e+02 
88.813   1.28000000e+02 
88.777   1.20000000e+02 
88.741   1.40000000e+02 
88.705   1.14000000e+02 
88.670   1.14000000e+02 
88.634   1.55000000e+02 
88.598   1.14000000e+02 
88.562   1.10000000e+02 
88.526   1.21000000e+02 
88.490   1.36000000e+02 
88.454   1.10000000e+02 
88.418   1.33000000e+02 
88.382   1.20000000e+02 
88.346   1.17000000e+02 
88.310   1.10000000e+02 
88.274   1.34000000e+02 
88.238   1.13000000e+02 
88.202   1.16000000e+02 
88.166   1.10000000e+02 
88.130   1.06000000e+02 
88.095   1.14000000e+02 
88.059   1.16000000e+02 
88.023   1.15000000e+02 

