EXPERIMENT FILE
Version = 2

[ Experiment Parameters ]
Experiment Description= <none> 
Number_of_Regions_in_Experiment= 1 

Original_File_name= C:\alexesca\data\10312012_Au _4f_57nuetral+38_Mono275.xps 
Instrument= HP ESCA West
Date= 10-31-2012
Time=  16:31:49

[ Layer Parameters ]
Layer_Type= XPS

[ Region 1 Parameters ]
Region_Description = Au 4f Dithered Scan                
BEcenter(eV) = 93.000000
BEwidth(eV) = 10.000000
BEstep(eV) = 0.035937
Dwell_Time(sec) = 1.000000
N_o_scans = 1  
N_o_Channels = 278  
Scan_mode = 0  (DITHERED)

[ L= 1 R= 1 ]
BEcenter= 93.000  
BEwidth= -9.955  
Excitation= 1486.600
Time_p_channel= 256.000 
Size= 278
97.977   7.40000000e+02 
97.941   7.36000000e+02 
97.905   7.80000000e+02 
97.870   7.84000000e+02 
97.834   8.00000000e+02 
97.798   8.13000000e+02 
97.762   8.17000000e+02 
97.726   8.88000000e+02 
97.690   8.96000000e+02 
97.654   9.22000000e+02 
97.618   9.44000000e+02 
97.582   9.73000000e+02 
97.546   9.53000000e+02 
97.510   1.05800000e+03 
97.474   1.05700000e+03 
97.438   1.10400000e+03 
97.402   1.13900000e+03 
97.366   1.18400000e+03 
97.330   1.21400000e+03 
97.295   1.30800000e+03 
97.259   1.28300000e+03 
97.223   1.33800000e+03 
97.187   1.41800000e+03 
97.151   1.44700000e+03 
97.115   1.41500000e+03 
97.079   1.46900000e+03 
97.043   1.51000000e+03 
97.007   1.65300000e+03 
96.971   1.60200000e+03 
96.935   1.73700000e+03 
96.899   1.79000000e+03 
96.863   1.88100000e+03 
96.827   1.85600000e+03 
96.791   1.87100000e+03 
96.755   1.95600000e+03 
96.720   2.04200000e+03 
96.684   2.02900000e+03 
96.648   2.06400000e+03 
96.612   2.09400000e+03 
96.576   2.14100000e+03 
96.540   2.21000000e+03 
96.504   2.12000000e+03 
96.468   2.19600000e+03 
96.432   2.20200000e+03 
96.396   2.26500000e+03 
96.360   2.31200000e+03 
96.324   2.19600000e+03 
96.288   2.22700000e+03 
96.252   2.30500000e+03 
96.216   2.25600000e+03 
96.180   2.40800000e+03 
96.145   2.30500000e+03 
96.109   2.37200000e+03 
96.073   2.38500000e+03 
96.037   2.47500000e+03 
96.001   2.38000000e+03 
95.965   2.46000000e+03 
95.929   2.35600000e+03 
95.893   2.43000000e+03 
95.857   2.41100000e+03 
95.821   2.46400000e+03 
95.785   2.40400000e+03 
95.749   2.37000000e+03 
95.713   2.35500000e+03 
95.677   2.42900000e+03 
95.641   2.36000000e+03 
95.605   2.39200000e+03 
95.570   2.39800000e+03 
95.534   2.45300000e+03 
95.498   2.42700000e+03 
95.462   2.39000000e+03 
95.426   2.31800000e+03 
95.390   2.42500000e+03 
95.354   2.28500000e+03 
95.318   2.32700000e+03 
95.282   2.28200000e+03 
95.246   2.22000000e+03 
95.210   2.21900000e+03 
95.174   2.23900000e+03 
95.138   2.18100000e+03 
95.102   2.10600000e+03 
95.066   2.14900000e+03 
95.030   1.94600000e+03 
94.995   2.02000000e+03 
94.959   1.84900000e+03 
94.923   1.82400000e+03 
94.887   1.70100000e+03 
94.851   1.70000000e+03 
94.815   1.67400000e+03 
94.779   1.61900000e+03 
94.743   1.38500000e+03 
94.707   1.36000000e+03 
94.671   1.29400000e+03 
94.635   1.27900000e+03 
94.599   1.18400000e+03 
94.563   1.08700000e+03 
94.527   1.08300000e+03 
94.491   1.03800000e+03 
94.455   1.01800000e+03 
94.420   1.00400000e+03 
94.384   9.95000000e+02 
94.348   9.11000000e+02 
94.312   9.11000000e+02 
94.276   8.94000000e+02 
94.240   8.86000000e+02 
94.204   9.30000000e+02 
94.168   9.11000000e+02 
94.132   9.08000000e+02 
94.096   9.06000000e+02 
94.060   9.39000000e+02 
94.024   9.58000000e+02 
93.988   9.57000000e+02 
93.952   9.90000000e+02 
93.916   1.04700000e+03 
93.880   1.02000000e+03 
93.845   1.07500000e+03 
93.809   1.19500000e+03 
93.773   1.20100000e+03 
93.737   1.29900000e+03 
93.701   1.30200000e+03 
93.665   1.26100000e+03 
93.629   1.42900000e+03 
93.593   1.42900000e+03 
93.557   1.46000000e+03 
93.521   1.45100000e+03 
93.485   1.53300000e+03 
93.449   1.62600000e+03 
93.413   1.63300000e+03 
93.377   1.73700000e+03 
93.341   1.80500000e+03 
93.305   1.86300000e+03 
93.270   1.93400000e+03 
93.234   1.96200000e+03 
93.198   2.03900000e+03 
93.162   2.02200000e+03 
93.126   2.20000000e+03 
93.090   2.14400000e+03 
93.054   2.18100000e+03 
93.018   2.21600000e+03 
92.982   2.37800000e+03 
92.946   2.36000000e+03 
92.910   2.53800000e+03 
92.874   2.49700000e+03 
92.838   2.55100000e+03 
92.802   2.57800000e+03 
92.766   2.52600000e+03 
92.730   2.60300000e+03 
92.695   2.54400000e+03 
92.659   2.68900000e+03 
92.623   2.53500000e+03 
92.587   2.71700000e+03 
92.551   2.73800000e+03 
92.515   2.74600000e+03 
92.479   2.67000000e+03 
92.443   2.72300000e+03 
92.407   2.71800000e+03 
92.371   2.79900000e+03 
92.335   2.77300000e+03 
92.299   2.72000000e+03 
92.263   2.80300000e+03 
92.227   2.75300000e+03 
92.191   2.82100000e+03 
92.155   2.71000000e+03 
92.120   2.75500000e+03 
92.084   2.77000000e+03 
92.048   2.80100000e+03 
92.012   2.83100000e+03 
91.976   2.82500000e+03 
91.940   2.78900000e+03 
91.904   2.78100000e+03 
91.868   2.71800000e+03 
91.832   2.73400000e+03 
91.796   2.79000000e+03 
91.760   2.72500000e+03 
91.724   2.66900000e+03 
91.688   2.64300000e+03 
91.652   2.64500000e+03 
91.616   2.55100000e+03 
91.580   2.53700000e+03 
91.545   2.45600000e+03 
91.509   2.40800000e+03 
91.473   2.45200000e+03 
91.437   2.37700000e+03 
91.401   2.29700000e+03 
91.365   2.24100000e+03 
91.329   2.14000000e+03 
91.293   2.16300000e+03 
91.257   1.90300000e+03 
91.221   1.92700000e+03 
91.185   1.78100000e+03 
91.149   1.70100000e+03 
91.113   1.55600000e+03 
91.077   1.46600000e+03 
91.041   1.36900000e+03 
91.005   1.34200000e+03 
90.970   1.15000000e+03 
90.934   9.94000000e+02 
90.898   9.58000000e+02 
90.862   9.25000000e+02 
90.826   8.23000000e+02 
90.790   7.40000000e+02 
90.754   6.89000000e+02 
90.718   5.77000000e+02 
90.682   5.72000000e+02 
90.646   5.60000000e+02 
90.610   5.16000000e+02 
90.574   5.28000000e+02 
90.538   4.51000000e+02 
90.502   4.32000000e+02 
90.466   4.48000000e+02 
90.430   3.99000000e+02 
90.395   4.04000000e+02 
90.359   3.87000000e+02 
90.323   3.35000000e+02 
90.287   3.84000000e+02 
90.251   3.42000000e+02 
90.215   3.35000000e+02 
90.179   3.40000000e+02 
90.143   3.40000000e+02 
90.107   3.25000000e+02 
90.071   3.33000000e+02 
90.035   3.26000000e+02 
89.999   3.32000000e+02 
89.963   3.43000000e+02 
89.927   2.86000000e+02 
89.891   3.03000000e+02 
89.855   3.04000000e+02 
89.820   2.88000000e+02 
89.784   2.91000000e+02 
89.748   2.69000000e+02 
89.712   2.84000000e+02 
89.676   2.67000000e+02 
89.640   2.82000000e+02 
89.604   2.68000000e+02 
89.568   2.60000000e+02 
89.532   2.84000000e+02 
89.496   2.30000000e+02 
89.460   2.40000000e+02 
89.424   2.64000000e+02 
89.388   2.48000000e+02 
89.352   2.58000000e+02 
89.316   2.32000000e+02 
89.280   2.29000000e+02 
89.245   2.54000000e+02 
89.209   2.45000000e+02 
89.173   2.50000000e+02 
89.137   2.46000000e+02 
89.101   2.26000000e+02 
89.065   2.31000000e+02 
89.029   2.40000000e+02 
88.993   2.60000000e+02 
88.957   2.53000000e+02 
88.921   2.34000000e+02 
88.885   2.13000000e+02 
88.849   2.39000000e+02 
88.813   2.60000000e+02 
88.777   2.61000000e+02 
88.741   2.26000000e+02 
88.705   2.39000000e+02 
88.670   2.14000000e+02 
88.634   2.29000000e+02 
88.598   2.13000000e+02 
88.562   2.35000000e+02 
88.526   2.18000000e+02 
88.490   2.37000000e+02 
88.454   2.17000000e+02 
88.418   2.68000000e+02 
88.382   2.46000000e+02 
88.346   2.23000000e+02 
88.310   2.19000000e+02 
88.274   2.19000000e+02 
88.238   1.95000000e+02 
88.202   2.11000000e+02 
88.166   2.34000000e+02 
88.130   2.16000000e+02 
88.095   2.10000000e+02 
88.059   2.16000000e+02 
88.023   2.00000000e+02 

