EXPERIMENT FILE
Version = 2

[ Experiment Parameters ]
Experiment Description= <none> 
Number_of_Regions_in_Experiment= 1 

Original_File_name= C:\alexesca\data\10312012_Au _4f_57nuetral+13_Mono275.xps 
Instrument= HP ESCA West
Date= 10-31-2012
Time=  16:19:56

[ Layer Parameters ]
Layer_Type= XPS

[ Region 1 Parameters ]
Region_Description = Au 4f Dithered Scan                
BEcenter(eV) = 93.000000
BEwidth(eV) = 10.000000
BEstep(eV) = 0.035937
Dwell_Time(sec) = 1.000000
N_o_scans = 1  
N_o_Channels = 278  
Scan_mode = 0  (DITHERED)

[ L= 1 R= 1 ]
BEcenter= 93.000  
BEwidth= -9.955  
Excitation= 1486.600
Time_p_channel= 256.000 
Size= 278
97.977   5.79000000e+02 
97.941   5.78000000e+02 
97.905   5.71000000e+02 
97.870   6.00000000e+02 
97.834   6.43000000e+02 
97.798   6.20000000e+02 
97.762   6.48000000e+02 
97.726   6.88000000e+02 
97.690   6.11000000e+02 
97.654   6.87000000e+02 
97.618   6.90000000e+02 
97.582   7.00000000e+02 
97.546   6.96000000e+02 
97.510   7.02000000e+02 
97.474   7.30000000e+02 
97.438   7.31000000e+02 
97.402   8.16000000e+02 
97.366   7.96000000e+02 
97.330   8.14000000e+02 
97.295   8.86000000e+02 
97.259   9.25000000e+02 
97.223   9.07000000e+02 
97.187   9.07000000e+02 
97.151   9.30000000e+02 
97.115   9.73000000e+02 
97.079   1.03500000e+03 
97.043   1.03900000e+03 
97.007   1.04800000e+03 
96.971   1.10200000e+03 
96.935   1.17300000e+03 
96.899   1.12600000e+03 
96.863   1.21400000e+03 
96.827   1.25200000e+03 
96.791   1.34300000e+03 
96.755   1.36300000e+03 
96.720   1.46800000e+03 
96.684   1.41000000e+03 
96.648   1.43400000e+03 
96.612   1.55000000e+03 
96.576   1.52300000e+03 
96.540   1.61200000e+03 
96.504   1.61100000e+03 
96.468   1.77300000e+03 
96.432   1.78200000e+03 
96.396   1.74000000e+03 
96.360   1.76900000e+03 
96.324   1.83400000e+03 
96.288   1.93100000e+03 
96.252   2.00500000e+03 
96.216   1.98800000e+03 
96.180   2.04200000e+03 
96.145   2.04200000e+03 
96.109   2.13800000e+03 
96.073   2.07500000e+03 
96.037   2.20900000e+03 
96.001   2.24600000e+03 
95.965   2.19100000e+03 
95.929   2.27600000e+03 
95.893   2.30100000e+03 
95.857   2.41900000e+03 
95.821   2.28000000e+03 
95.785   2.42100000e+03 
95.749   2.38400000e+03 
95.713   2.44600000e+03 
95.677   2.50500000e+03 
95.641   2.46200000e+03 
95.605   2.50000000e+03 
95.570   2.45200000e+03 
95.534   2.48200000e+03 
95.498   2.46400000e+03 
95.462   2.44300000e+03 
95.426   2.27400000e+03 
95.390   2.27900000e+03 
95.354   2.20900000e+03 
95.318   2.17300000e+03 
95.282   2.18600000e+03 
95.246   2.06800000e+03 
95.210   1.90000000e+03 
95.174   1.90000000e+03 
95.138   1.81300000e+03 
95.102   1.70400000e+03 
95.066   1.59200000e+03 
95.030   1.55800000e+03 
94.995   1.47500000e+03 
94.959   1.33400000e+03 
94.923   1.20900000e+03 
94.887   1.20400000e+03 
94.851   1.11900000e+03 
94.815   1.02400000e+03 
94.779   9.54000000e+02 
94.743   8.94000000e+02 
94.707   8.60000000e+02 
94.671   8.08000000e+02 
94.635   7.72000000e+02 
94.599   7.40000000e+02 
94.563   7.04000000e+02 
94.527   6.71000000e+02 
94.491   6.75000000e+02 
94.455   6.69000000e+02 
94.420   6.48000000e+02 
94.384   6.32000000e+02 
94.348   6.60000000e+02 
94.312   6.06000000e+02 
94.276   6.44000000e+02 
94.240   6.14000000e+02 
94.204   6.56000000e+02 
94.168   6.62000000e+02 
94.132   6.33000000e+02 
94.096   6.76000000e+02 
94.060   6.56000000e+02 
94.024   6.21000000e+02 
93.988   6.83000000e+02 
93.952   7.71000000e+02 
93.916   6.91000000e+02 
93.880   7.16000000e+02 
93.845   7.46000000e+02 
93.809   8.05000000e+02 
93.773   7.90000000e+02 
93.737   8.03000000e+02 
93.701   7.78000000e+02 
93.665   7.98000000e+02 
93.629   8.61000000e+02 
93.593   8.94000000e+02 
93.557   9.43000000e+02 
93.521   9.47000000e+02 
93.485   9.81000000e+02 
93.449   9.96000000e+02 
93.413   1.09500000e+03 
93.377   1.11400000e+03 
93.341   1.16000000e+03 
93.305   1.24200000e+03 
93.270   1.20200000e+03 
93.234   1.29900000e+03 
93.198   1.30700000e+03 
93.162   1.43500000e+03 
93.126   1.41800000e+03 
93.090   1.49600000e+03 
93.054   1.49900000e+03 
93.018   1.63000000e+03 
92.982   1.56300000e+03 
92.946   1.70600000e+03 
92.910   1.81300000e+03 
92.874   1.80800000e+03 
92.838   1.93300000e+03 
92.802   1.88500000e+03 
92.766   2.00800000e+03 
92.730   2.02500000e+03 
92.695   2.11000000e+03 
92.659   2.13000000e+03 
92.623   2.22000000e+03 
92.587   2.30000000e+03 
92.551   2.30800000e+03 
92.515   2.28200000e+03 
92.479   2.41700000e+03 
92.443   2.47400000e+03 
92.407   2.45400000e+03 
92.371   2.59300000e+03 
92.335   2.66000000e+03 
92.299   2.71800000e+03 
92.263   2.65400000e+03 
92.227   2.68400000e+03 
92.191   2.82500000e+03 
92.155   2.90100000e+03 
92.120   2.79200000e+03 
92.084   2.91300000e+03 
92.048   2.98400000e+03 
92.012   2.85800000e+03 
91.976   2.87100000e+03 
91.940   2.87500000e+03 
91.904   2.87300000e+03 
91.868   2.78400000e+03 
91.832   2.86700000e+03 
91.796   2.72200000e+03 
91.760   2.66200000e+03 
91.724   2.68400000e+03 
91.688   2.62800000e+03 
91.652   2.58800000e+03 
91.616   2.43400000e+03 
91.580   2.37900000e+03 
91.545   2.29000000e+03 
91.509   2.21800000e+03 
91.473   1.97900000e+03 
91.437   1.93300000e+03 
91.401   1.74500000e+03 
91.365   1.68000000e+03 
91.329   1.60000000e+03 
91.293   1.40400000e+03 
91.257   1.35200000e+03 
91.221   1.20400000e+03 
91.185   1.14700000e+03 
91.149   1.07500000e+03 
91.113   9.01000000e+02 
91.077   8.34000000e+02 
91.041   7.86000000e+02 
91.005   7.05000000e+02 
90.970   6.38000000e+02 
90.934   6.34000000e+02 
90.898   5.62000000e+02 
90.862   5.38000000e+02 
90.826   4.71000000e+02 
90.790   4.56000000e+02 
90.754   4.23000000e+02 
90.718   3.92000000e+02 
90.682   3.98000000e+02 
90.646   3.56000000e+02 
90.610   3.68000000e+02 
90.574   3.35000000e+02 
90.538   3.08000000e+02 
90.502   2.92000000e+02 
90.466   3.08000000e+02 
90.430   3.33000000e+02 
90.395   3.18000000e+02 
90.359   2.98000000e+02 
90.323   2.74000000e+02 
90.287   2.94000000e+02 
90.251   2.68000000e+02 
90.215   2.78000000e+02 
90.179   2.38000000e+02 
90.143   2.63000000e+02 
90.107   2.40000000e+02 
90.071   2.26000000e+02 
90.035   2.77000000e+02 
89.999   2.50000000e+02 
89.963   2.55000000e+02 
89.927   2.33000000e+02 
89.891   2.59000000e+02 
89.855   2.29000000e+02 
89.820   2.13000000e+02 
89.784   2.37000000e+02 
89.748   2.14000000e+02 
89.712   2.46000000e+02 
89.676   2.46000000e+02 
89.640   2.12000000e+02 
89.604   1.95000000e+02 
89.568   2.31000000e+02 
89.532   2.05000000e+02 
89.496   2.09000000e+02 
89.460   2.21000000e+02 
89.424   2.27000000e+02 
89.388   2.16000000e+02 
89.352   2.30000000e+02 
89.316   2.29000000e+02 
89.280   2.02000000e+02 
89.245   2.16000000e+02 
89.209   2.16000000e+02 
89.173   2.15000000e+02 
89.137   2.02000000e+02 
89.101   2.13000000e+02 
89.065   1.97000000e+02 
89.029   1.89000000e+02 
88.993   2.20000000e+02 
88.957   2.00000000e+02 
88.921   2.09000000e+02 
88.885   2.06000000e+02 
88.849   2.17000000e+02 
88.813   1.89000000e+02 
88.777   1.99000000e+02 
88.741   2.04000000e+02 
88.705   2.17000000e+02 
88.670   1.91000000e+02 
88.634   1.81000000e+02 
88.598   1.86000000e+02 
88.562   2.09000000e+02 
88.526   1.84000000e+02 
88.490   1.77000000e+02 
88.454   1.75000000e+02 
88.418   1.81000000e+02 
88.382   1.89000000e+02 
88.346   2.10000000e+02 
88.310   1.91000000e+02 
88.274   1.79000000e+02 
88.238   1.95000000e+02 
88.202   1.81000000e+02 
88.166   1.81000000e+02 
88.130   1.64000000e+02 
88.095   1.95000000e+02 
88.059   1.69000000e+02 
88.023   1.82000000e+02 

