EXPERIMENT FILE
Version = 2

[ Experiment Parameters ]
Experiment Description= <none> 
Number_of_Regions_in_Experiment= 1 

Original_File_name= C:\alexesca\data\10312012_Au _4f_56nuetral+39_Mono265.xps 
Instrument= HP ESCA West
Date= 10-31-2012
Time=  15:05:22

[ Layer Parameters ]
Layer_Type= XPS

[ Region 1 Parameters ]
Region_Description = Au 4f Dithered Scan                
BEcenter(eV) = 93.000000
BEwidth(eV) = 10.000000
BEstep(eV) = 0.035937
Dwell_Time(sec) = 1.000000
N_o_scans = 1  
N_o_Channels = 278  
Scan_mode = 0  (DITHERED)

[ L= 1 R= 1 ]
BEcenter= 93.000  
BEwidth= -9.955  
Excitation= 1486.600
Time_p_channel= 256.000 
Size= 278
97.977   7.80000000e+02 
97.941   7.83000000e+02 
97.905   8.08000000e+02 
97.870   8.34000000e+02 
97.834   8.42000000e+02 
97.798   8.14000000e+02 
97.762   8.56000000e+02 
97.726   8.99000000e+02 
97.690   8.83000000e+02 
97.654   9.16000000e+02 
97.618   9.85000000e+02 
97.582   9.72000000e+02 
97.546   1.04200000e+03 
97.510   1.06600000e+03 
97.474   1.08300000e+03 
97.438   1.08000000e+03 
97.402   1.11900000e+03 
97.366   1.21200000e+03 
97.330   1.21600000e+03 
97.295   1.25200000e+03 
97.259   1.30100000e+03 
97.223   1.33000000e+03 
97.187   1.36700000e+03 
97.151   1.43700000e+03 
97.115   1.34700000e+03 
97.079   1.50000000e+03 
97.043   1.51800000e+03 
97.007   1.50400000e+03 
96.971   1.68400000e+03 
96.935   1.69300000e+03 
96.899   1.76800000e+03 
96.863   1.77500000e+03 
96.827   1.80000000e+03 
96.791   1.83800000e+03 
96.755   2.01200000e+03 
96.720   1.87000000e+03 
96.684   1.98300000e+03 
96.648   2.04900000e+03 
96.612   2.15600000e+03 
96.576   2.10100000e+03 
96.540   2.17400000e+03 
96.504   2.10900000e+03 
96.468   2.22900000e+03 
96.432   2.21600000e+03 
96.396   2.25200000e+03 
96.360   2.23900000e+03 
96.324   2.28000000e+03 
96.288   2.26100000e+03 
96.252   2.31100000e+03 
96.216   2.27800000e+03 
96.180   2.30200000e+03 
96.145   2.36900000e+03 
96.109   2.41400000e+03 
96.073   2.45300000e+03 
96.037   2.42200000e+03 
96.001   2.44200000e+03 
95.965   2.52000000e+03 
95.929   2.43300000e+03 
95.893   2.47600000e+03 
95.857   2.36700000e+03 
95.821   2.38900000e+03 
95.785   2.47800000e+03 
95.749   2.43700000e+03 
95.713   2.50500000e+03 
95.677   2.48200000e+03 
95.641   2.49000000e+03 
95.605   2.51000000e+03 
95.570   2.40600000e+03 
95.534   2.50900000e+03 
95.498   2.46500000e+03 
95.462   2.47200000e+03 
95.426   2.50400000e+03 
95.390   2.36400000e+03 
95.354   2.40200000e+03 
95.318   2.47800000e+03 
95.282   2.34700000e+03 
95.246   2.30200000e+03 
95.210   2.36100000e+03 
95.174   2.28200000e+03 
95.138   2.24900000e+03 
95.102   2.14700000e+03 
95.066   2.11400000e+03 
95.030   2.04900000e+03 
94.995   2.04000000e+03 
94.959   2.03200000e+03 
94.923   1.89900000e+03 
94.887   1.86800000e+03 
94.851   1.78700000e+03 
94.815   1.63700000e+03 
94.779   1.65800000e+03 
94.743   1.51500000e+03 
94.707   1.45400000e+03 
94.671   1.43400000e+03 
94.635   1.23600000e+03 
94.599   1.20400000e+03 
94.563   1.15000000e+03 
94.527   1.07700000e+03 
94.491   1.06600000e+03 
94.455   1.03000000e+03 
94.420   1.01400000e+03 
94.384   9.40000000e+02 
94.348   9.35000000e+02 
94.312   9.22000000e+02 
94.276   9.40000000e+02 
94.240   9.13000000e+02 
94.204   8.61000000e+02 
94.168   8.88000000e+02 
94.132   9.09000000e+02 
94.096   9.29000000e+02 
94.060   9.68000000e+02 
94.024   9.66000000e+02 
93.988   9.49000000e+02 
93.952   9.94000000e+02 
93.916   1.02900000e+03 
93.880   1.04100000e+03 
93.845   1.09500000e+03 
93.809   1.17400000e+03 
93.773   1.17000000e+03 
93.737   1.17900000e+03 
93.701   1.20200000e+03 
93.665   1.30400000e+03 
93.629   1.38400000e+03 
93.593   1.42200000e+03 
93.557   1.37000000e+03 
93.521   1.51400000e+03 
93.485   1.48400000e+03 
93.449   1.57100000e+03 
93.413   1.60100000e+03 
93.377   1.69500000e+03 
93.341   1.83000000e+03 
93.305   1.87200000e+03 
93.270   1.93300000e+03 
93.234   1.93600000e+03 
93.198   2.10200000e+03 
93.162   2.12300000e+03 
93.126   2.07100000e+03 
93.090   2.13200000e+03 
93.054   2.22600000e+03 
93.018   2.17900000e+03 
92.982   2.41600000e+03 
92.946   2.34000000e+03 
92.910   2.36600000e+03 
92.874   2.42900000e+03 
92.838   2.53800000e+03 
92.802   2.52600000e+03 
92.766   2.50100000e+03 
92.730   2.58200000e+03 
92.695   2.65100000e+03 
92.659   2.66300000e+03 
92.623   2.63700000e+03 
92.587   2.60400000e+03 
92.551   2.66000000e+03 
92.515   2.81100000e+03 
92.479   2.66700000e+03 
92.443   2.81400000e+03 
92.407   2.75700000e+03 
92.371   2.74100000e+03 
92.335   2.80600000e+03 
92.299   2.81900000e+03 
92.263   2.77800000e+03 
92.227   2.86700000e+03 
92.191   2.73800000e+03 
92.155   2.83600000e+03 
92.120   2.90200000e+03 
92.084   2.89200000e+03 
92.048   2.82800000e+03 
92.012   2.81300000e+03 
91.976   2.85800000e+03 
91.940   2.80400000e+03 
91.904   2.84000000e+03 
91.868   2.78700000e+03 
91.832   2.78500000e+03 
91.796   2.79000000e+03 
91.760   2.81300000e+03 
91.724   2.76100000e+03 
91.688   2.74300000e+03 
91.652   2.72300000e+03 
91.616   2.67000000e+03 
91.580   2.65800000e+03 
91.545   2.60800000e+03 
91.509   2.62100000e+03 
91.473   2.60800000e+03 
91.437   2.49100000e+03 
91.401   2.42700000e+03 
91.365   2.37300000e+03 
91.329   2.27200000e+03 
91.293   2.16100000e+03 
91.257   1.96200000e+03 
91.221   1.91200000e+03 
91.185   1.89100000e+03 
91.149   1.70400000e+03 
91.113   1.63500000e+03 
91.077   1.46700000e+03 
91.041   1.37700000e+03 
91.005   1.27600000e+03 
90.970   1.19900000e+03 
90.934   1.13500000e+03 
90.898   1.03000000e+03 
90.862   9.58000000e+02 
90.826   8.48000000e+02 
90.790   7.87000000e+02 
90.754   7.09000000e+02 
90.718   6.42000000e+02 
90.682   6.13000000e+02 
90.646   5.77000000e+02 
90.610   5.37000000e+02 
90.574   4.68000000e+02 
90.538   4.51000000e+02 
90.502   4.58000000e+02 
90.466   4.21000000e+02 
90.430   4.40000000e+02 
90.395   3.72000000e+02 
90.359   3.94000000e+02 
90.323   3.82000000e+02 
90.287   3.75000000e+02 
90.251   3.94000000e+02 
90.215   3.41000000e+02 
90.179   3.43000000e+02 
90.143   3.09000000e+02 
90.107   2.96000000e+02 
90.071   3.31000000e+02 
90.035   3.41000000e+02 
89.999   3.11000000e+02 
89.963   3.11000000e+02 
89.927   3.07000000e+02 
89.891   3.29000000e+02 
89.855   3.03000000e+02 
89.820   2.83000000e+02 
89.784   3.09000000e+02 
89.748   2.77000000e+02 
89.712   2.76000000e+02 
89.676   2.78000000e+02 
89.640   2.78000000e+02 
89.604   2.94000000e+02 
89.568   2.53000000e+02 
89.532   2.81000000e+02 
89.496   2.53000000e+02 
89.460   2.58000000e+02 
89.424   2.38000000e+02 
89.388   2.59000000e+02 
89.352   2.47000000e+02 
89.316   2.20000000e+02 
89.280   2.37000000e+02 
89.245   2.55000000e+02 
89.209   2.38000000e+02 
89.173   2.63000000e+02 
89.137   2.61000000e+02 
89.101   2.56000000e+02 
89.065   2.15000000e+02 
89.029   2.37000000e+02 
88.993   2.32000000e+02 
88.957   2.40000000e+02 
88.921   2.43000000e+02 
88.885   2.25000000e+02 
88.849   2.63000000e+02 
88.813   2.46000000e+02 
88.777   2.41000000e+02 
88.741   2.55000000e+02 
88.705   2.42000000e+02 
88.670   2.35000000e+02 
88.634   2.14000000e+02 
88.598   2.34000000e+02 
88.562   2.08000000e+02 
88.526   2.09000000e+02 
88.490   2.30000000e+02 
88.454   2.21000000e+02 
88.418   1.89000000e+02 
88.382   2.05000000e+02 
88.346   1.85000000e+02 
88.310   2.11000000e+02 
88.274   2.26000000e+02 
88.238   2.16000000e+02 
88.202   2.20000000e+02 
88.166   1.89000000e+02 
88.130   2.19000000e+02 
88.095   2.42000000e+02 
88.059   2.27000000e+02 
88.023   2.14000000e+02 

