EXPERIMENT FILE
Version = 2

[ Experiment Parameters ]
Experiment Description= <none> 
Number_of_Regions_in_Experiment= 1 

Original_File_name= C:\alexesca\data\10312012_Au _4f_56nuetral-6_Mono265.xps 
Instrument= HP ESCA West
Date= 10-31-2012
Time=  14:23:46

[ Layer Parameters ]
Layer_Type= XPS

[ Region 1 Parameters ]
Region_Description = Au 4f Dithered Scan                
BEcenter(eV) = 93.000000
BEwidth(eV) = 10.000000
BEstep(eV) = 0.035937
Dwell_Time(sec) = 1.000000
N_o_scans = 1  
N_o_Channels = 278  
Scan_mode = 0  (DITHERED)

[ L= 1 R= 1 ]
BEcenter= 93.000  
BEwidth= -9.955  
Excitation= 1486.600
Time_p_channel= 256.000 
Size= 278
97.977   3.11000000e+02 
97.941   3.24000000e+02 
97.905   3.29000000e+02 
97.870   3.40000000e+02 
97.834   3.77000000e+02 
97.798   3.20000000e+02 
97.762   3.12000000e+02 
97.726   3.67000000e+02 
97.690   3.44000000e+02 
97.654   3.30000000e+02 
97.618   3.45000000e+02 
97.582   3.86000000e+02 
97.546   3.75000000e+02 
97.510   3.61000000e+02 
97.474   3.54000000e+02 
97.438   3.51000000e+02 
97.402   3.50000000e+02 
97.366   3.34000000e+02 
97.330   3.75000000e+02 
97.295   4.04000000e+02 
97.259   3.78000000e+02 
97.223   4.02000000e+02 
97.187   4.18000000e+02 
97.151   4.24000000e+02 
97.115   4.24000000e+02 
97.079   4.57000000e+02 
97.043   4.16000000e+02 
97.007   4.33000000e+02 
96.971   4.50000000e+02 
96.935   5.16000000e+02 
96.899   4.56000000e+02 
96.863   5.20000000e+02 
96.827   4.83000000e+02 
96.791   5.16000000e+02 
96.755   5.14000000e+02 
96.720   5.19000000e+02 
96.684   5.51000000e+02 
96.648   5.96000000e+02 
96.612   6.05000000e+02 
96.576   6.52000000e+02 
96.540   6.46000000e+02 
96.504   6.62000000e+02 
96.468   6.44000000e+02 
96.432   7.23000000e+02 
96.396   7.45000000e+02 
96.360   7.85000000e+02 
96.324   8.19000000e+02 
96.288   8.28000000e+02 
96.252   8.29000000e+02 
96.216   8.87000000e+02 
96.180   9.39000000e+02 
96.145   8.66000000e+02 
96.109   9.69000000e+02 
96.073   9.63000000e+02 
96.037   1.05500000e+03 
96.001   1.08400000e+03 
95.965   1.21100000e+03 
95.929   1.18100000e+03 
95.893   1.26500000e+03 
95.857   1.32500000e+03 
95.821   1.30400000e+03 
95.785   1.43000000e+03 
95.749   1.42300000e+03 
95.713   1.51000000e+03 
95.677   1.48400000e+03 
95.641   1.61400000e+03 
95.605   1.60300000e+03 
95.570   1.64500000e+03 
95.534   1.66900000e+03 
95.498   1.75300000e+03 
95.462   1.76300000e+03 
95.426   1.76200000e+03 
95.390   1.77600000e+03 
95.354   1.73600000e+03 
95.318   1.77900000e+03 
95.282   1.78700000e+03 
95.246   1.72300000e+03 
95.210   1.67300000e+03 
95.174   1.66900000e+03 
95.138   1.59200000e+03 
95.102   1.55400000e+03 
95.066   1.44300000e+03 
95.030   1.37500000e+03 
94.995   1.28700000e+03 
94.959   1.20700000e+03 
94.923   1.09900000e+03 
94.887   1.00000000e+03 
94.851   9.24000000e+02 
94.815   8.83000000e+02 
94.779   8.32000000e+02 
94.743   7.27000000e+02 
94.707   6.45000000e+02 
94.671   6.02000000e+02 
94.635   5.75000000e+02 
94.599   5.81000000e+02 
94.563   5.45000000e+02 
94.527   4.85000000e+02 
94.491   4.92000000e+02 
94.455   4.19000000e+02 
94.420   4.93000000e+02 
94.384   4.18000000e+02 
94.348   3.76000000e+02 
94.312   4.07000000e+02 
94.276   3.70000000e+02 
94.240   3.80000000e+02 
94.204   3.57000000e+02 
94.168   3.85000000e+02 
94.132   3.47000000e+02 
94.096   4.05000000e+02 
94.060   3.54000000e+02 
94.024   3.68000000e+02 
93.988   3.48000000e+02 
93.952   3.45000000e+02 
93.916   3.63000000e+02 
93.880   3.40000000e+02 
93.845   3.47000000e+02 
93.809   3.59000000e+02 
93.773   3.36000000e+02 
93.737   3.68000000e+02 
93.701   3.48000000e+02 
93.665   3.61000000e+02 
93.629   3.82000000e+02 
93.593   3.56000000e+02 
93.557   3.80000000e+02 
93.521   3.80000000e+02 
93.485   3.99000000e+02 
93.449   4.06000000e+02 
93.413   4.07000000e+02 
93.377   4.56000000e+02 
93.341   4.21000000e+02 
93.305   4.72000000e+02 
93.270   4.43000000e+02 
93.234   4.59000000e+02 
93.198   4.70000000e+02 
93.162   5.28000000e+02 
93.126   5.26000000e+02 
93.090   5.65000000e+02 
93.054   5.71000000e+02 
93.018   5.73000000e+02 
92.982   6.05000000e+02 
92.946   5.93000000e+02 
92.910   6.57000000e+02 
92.874   6.96000000e+02 
92.838   6.72000000e+02 
92.802   6.75000000e+02 
92.766   7.54000000e+02 
92.730   7.93000000e+02 
92.695   7.76000000e+02 
92.659   8.15000000e+02 
92.623   8.70000000e+02 
92.587   9.11000000e+02 
92.551   1.00200000e+03 
92.515   1.04900000e+03 
92.479   1.04300000e+03 
92.443   1.07400000e+03 
92.407   1.11300000e+03 
92.371   1.22900000e+03 
92.335   1.23200000e+03 
92.299   1.27600000e+03 
92.263   1.44100000e+03 
92.227   1.38900000e+03 
92.191   1.51400000e+03 
92.155   1.47200000e+03 
92.120   1.50400000e+03 
92.084   1.64100000e+03 
92.048   1.67600000e+03 
92.012   1.71700000e+03 
91.976   1.79300000e+03 
91.940   1.94700000e+03 
91.904   1.85900000e+03 
91.868   2.00700000e+03 
91.832   2.02900000e+03 
91.796   2.07900000e+03 
91.760   2.08300000e+03 
91.724   2.12600000e+03 
91.688   2.16300000e+03 
91.652   2.14500000e+03 
91.616   2.17700000e+03 
91.580   2.10700000e+03 
91.545   2.08700000e+03 
91.509   2.00400000e+03 
91.473   1.98900000e+03 
91.437   1.88200000e+03 
91.401   1.91200000e+03 
91.365   1.75900000e+03 
91.329   1.56900000e+03 
91.293   1.44500000e+03 
91.257   1.30600000e+03 
91.221   1.16800000e+03 
91.185   1.13800000e+03 
91.149   9.94000000e+02 
91.113   9.04000000e+02 
91.077   8.43000000e+02 
91.041   7.12000000e+02 
91.005   6.25000000e+02 
90.970   6.23000000e+02 
90.934   5.53000000e+02 
90.898   5.10000000e+02 
90.862   4.76000000e+02 
90.826   4.14000000e+02 
90.790   3.97000000e+02 
90.754   3.83000000e+02 
90.718   3.31000000e+02 
90.682   2.94000000e+02 
90.646   2.85000000e+02 
90.610   3.21000000e+02 
90.574   2.54000000e+02 
90.538   2.75000000e+02 
90.502   2.51000000e+02 
90.466   2.49000000e+02 
90.430   2.28000000e+02 
90.395   2.54000000e+02 
90.359   2.02000000e+02 
90.323   2.36000000e+02 
90.287   2.21000000e+02 
90.251   2.19000000e+02 
90.215   1.98000000e+02 
90.179   2.12000000e+02 
90.143   2.30000000e+02 
90.107   1.83000000e+02 
90.071   2.07000000e+02 
90.035   1.84000000e+02 
89.999   1.48000000e+02 
89.963   1.79000000e+02 
89.927   1.56000000e+02 
89.891   1.63000000e+02 
89.855   1.54000000e+02 
89.820   1.93000000e+02 
89.784   1.56000000e+02 
89.748   1.56000000e+02 
89.712   1.83000000e+02 
89.676   1.53000000e+02 
89.640   1.50000000e+02 
89.604   1.69000000e+02 
89.568   1.38000000e+02 
89.532   1.72000000e+02 
89.496   1.45000000e+02 
89.460   1.47000000e+02 
89.424   1.45000000e+02 
89.388   1.37000000e+02 
89.352   1.61000000e+02 
89.316   1.44000000e+02 
89.280   1.36000000e+02 
89.245   1.39000000e+02 
89.209   1.50000000e+02 
89.173   1.67000000e+02 
89.137   1.31000000e+02 
89.101   1.33000000e+02 
89.065   1.51000000e+02 
89.029   1.29000000e+02 
88.993   1.19000000e+02 
88.957   1.31000000e+02 
88.921   1.59000000e+02 
88.885   1.50000000e+02 
88.849   1.17000000e+02 
88.813   1.36000000e+02 
88.777   1.24000000e+02 
88.741   1.46000000e+02 
88.705   1.12000000e+02 
88.670   1.26000000e+02 
88.634   1.38000000e+02 
88.598   1.34000000e+02 
88.562   1.19000000e+02 
88.526   1.21000000e+02 
88.490   1.40000000e+02 
88.454   1.58000000e+02 
88.418   1.20000000e+02 
88.382   1.02000000e+02 
88.346   1.32000000e+02 
88.310   1.27000000e+02 
88.274   1.06000000e+02 
88.238   1.30000000e+02 
88.202   1.37000000e+02 
88.166   1.13000000e+02 
88.130   1.39000000e+02 
88.095   1.32000000e+02 
88.059   1.37000000e+02 
88.023   1.09000000e+02 

