EXPERIMENT FILE
Version = 2

[ Experiment Parameters ]
Experiment Description= <none> 
Number_of_Regions_in_Experiment= 1 

Original_File_name= C:\alexesca\data\11302012_Au _4f_39nuetral_Mono282.xps 
Instrument= HP ESCA West
Date= 11-30-2012
Time=  15:40:50

[ Layer Parameters ]
Layer_Type= XPS

[ Region 1 Parameters ]
Region_Description = Au 4f Dithered Scan                
BEcenter(eV) = 93.000000
BEwidth(eV) = 10.000000
BEstep(eV) = 0.035937
Dwell_Time(sec) = 1.000000
N_o_scans = 1  
N_o_Channels = 278  
Scan_mode = 0  (DITHERED)

[ L= 1 R= 1 ]
BEcenter= 93.000  
BEwidth= -9.955  
Excitation= 1486.600
Time_p_channel= 256.000 
Size= 278
97.977   4.21000000e+02 
97.941   4.12000000e+02 
97.905   3.95000000e+02 
97.870   4.38000000e+02 
97.834   4.11000000e+02 
97.798   4.44000000e+02 
97.762   4.38000000e+02 
97.726   4.28000000e+02 
97.690   4.15000000e+02 
97.654   4.05000000e+02 
97.618   4.52000000e+02 
97.582   4.08000000e+02 
97.546   4.48000000e+02 
97.510   4.10000000e+02 
97.474   4.47000000e+02 
97.438   4.49000000e+02 
97.402   4.20000000e+02 
97.366   4.26000000e+02 
97.330   4.52000000e+02 
97.295   4.55000000e+02 
97.259   4.69000000e+02 
97.223   4.68000000e+02 
97.187   4.24000000e+02 
97.151   4.32000000e+02 
97.115   4.61000000e+02 
97.079   4.81000000e+02 
97.043   4.61000000e+02 
97.007   4.40000000e+02 
96.971   4.86000000e+02 
96.935   4.95000000e+02 
96.899   5.07000000e+02 
96.863   4.71000000e+02 
96.827   4.94000000e+02 
96.791   4.65000000e+02 
96.755   5.02000000e+02 
96.720   4.73000000e+02 
96.684   4.54000000e+02 
96.648   5.09000000e+02 
96.612   4.94000000e+02 
96.576   4.62000000e+02 
96.540   4.88000000e+02 
96.504   5.09000000e+02 
96.468   5.44000000e+02 
96.432   5.48000000e+02 
96.396   5.16000000e+02 
96.360   5.32000000e+02 
96.324   5.03000000e+02 
96.288   5.68000000e+02 
96.252   5.73000000e+02 
96.216   6.08000000e+02 
96.180   5.91000000e+02 
96.145   6.09000000e+02 
96.109   5.98000000e+02 
96.073   6.68000000e+02 
96.037   6.81000000e+02 
96.001   6.70000000e+02 
95.965   6.35000000e+02 
95.929   7.09000000e+02 
95.893   7.24000000e+02 
95.857   7.70000000e+02 
95.821   7.62000000e+02 
95.785   7.65000000e+02 
95.749   8.12000000e+02 
95.713   8.49000000e+02 
95.677   8.41000000e+02 
95.641   9.14000000e+02 
95.605   9.59000000e+02 
95.570   9.54000000e+02 
95.534   9.62000000e+02 
95.498   1.07000000e+03 
95.462   1.07200000e+03 
95.426   1.17700000e+03 
95.390   1.20400000e+03 
95.354   1.26000000e+03 
95.318   1.29300000e+03 
95.282   1.30500000e+03 
95.246   1.41600000e+03 
95.210   1.52500000e+03 
95.174   1.48100000e+03 
95.138   1.62600000e+03 
95.102   1.61900000e+03 
95.066   1.71300000e+03 
95.030   1.74500000e+03 
94.995   1.91600000e+03 
94.959   1.92200000e+03 
94.923   1.92700000e+03 
94.887   2.00800000e+03 
94.851   2.10900000e+03 
94.815   2.20700000e+03 
94.779   2.24900000e+03 
94.743   2.31200000e+03 
94.707   2.46600000e+03 
94.671   2.40000000e+03 
94.635   2.52600000e+03 
94.599   2.51400000e+03 
94.563   2.49100000e+03 
94.527   2.56100000e+03 
94.491   2.52400000e+03 
94.455   2.47300000e+03 
94.420   2.45200000e+03 
94.384   2.31700000e+03 
94.348   2.22700000e+03 
94.312   2.05600000e+03 
94.276   2.04100000e+03 
94.240   1.93300000e+03 
94.204   1.76900000e+03 
94.168   1.61200000e+03 
94.132   1.54100000e+03 
94.096   1.41600000e+03 
94.060   1.24100000e+03 
94.024   1.15500000e+03 
93.988   1.08600000e+03 
93.952   1.03100000e+03 
93.916   8.93000000e+02 
93.880   8.14000000e+02 
93.845   7.41000000e+02 
93.809   7.08000000e+02 
93.773   6.72000000e+02 
93.737   6.32000000e+02 
93.701   6.11000000e+02 
93.665   5.84000000e+02 
93.629   5.93000000e+02 
93.593   5.82000000e+02 
93.557   5.76000000e+02 
93.521   5.54000000e+02 
93.485   5.22000000e+02 
93.449   5.18000000e+02 
93.413   5.13000000e+02 
93.377   4.87000000e+02 
93.341   5.06000000e+02 
93.305   4.97000000e+02 
93.270   4.57000000e+02 
93.234   4.62000000e+02 
93.198   4.68000000e+02 
93.162   4.88000000e+02 
93.126   4.95000000e+02 
93.090   4.83000000e+02 
93.054   4.60000000e+02 
93.018   4.97000000e+02 
92.982   4.93000000e+02 
92.946   4.83000000e+02 
92.910   5.07000000e+02 
92.874   4.89000000e+02 
92.838   4.78000000e+02 
92.802   5.43000000e+02 
92.766   5.17000000e+02 
92.730   5.01000000e+02 
92.695   5.16000000e+02 
92.659   5.04000000e+02 
92.623   5.70000000e+02 
92.587   5.12000000e+02 
92.551   5.47000000e+02 
92.515   5.58000000e+02 
92.479   5.86000000e+02 
92.443   6.38000000e+02 
92.407   6.00000000e+02 
92.371   6.32000000e+02 
92.335   6.21000000e+02 
92.299   7.17000000e+02 
92.263   7.27000000e+02 
92.227   7.04000000e+02 
92.191   7.38000000e+02 
92.155   8.17000000e+02 
92.120   7.38000000e+02 
92.084   8.32000000e+02 
92.048   8.58000000e+02 
92.012   8.59000000e+02 
91.976   9.20000000e+02 
91.940   9.20000000e+02 
91.904   9.73000000e+02 
91.868   9.96000000e+02 
91.832   1.09300000e+03 
91.796   1.18400000e+03 
91.760   1.23700000e+03 
91.724   1.21500000e+03 
91.688   1.34800000e+03 
91.652   1.37300000e+03 
91.616   1.43400000e+03 
91.580   1.51900000e+03 
91.545   1.59300000e+03 
91.509   1.57300000e+03 
91.473   1.75100000e+03 
91.437   1.83700000e+03 
91.401   1.89300000e+03 
91.365   1.97700000e+03 
91.329   2.08400000e+03 
91.293   2.16000000e+03 
91.257   2.25500000e+03 
91.221   2.32500000e+03 
91.185   2.46300000e+03 
91.149   2.54100000e+03 
91.113   2.55800000e+03 
91.077   2.80600000e+03 
91.041   2.74300000e+03 
91.005   2.88100000e+03 
90.970   2.99200000e+03 
90.934   3.11600000e+03 
90.898   3.11400000e+03 
90.862   3.01500000e+03 
90.826   3.16400000e+03 
90.790   3.01500000e+03 
90.754   2.99500000e+03 
90.718   2.94900000e+03 
90.682   2.77700000e+03 
90.646   2.68600000e+03 
90.610   2.58600000e+03 
90.574   2.35900000e+03 
90.538   2.12200000e+03 
90.502   1.92600000e+03 
90.466   1.93600000e+03 
90.430   1.66800000e+03 
90.395   1.43000000e+03 
90.359   1.38800000e+03 
90.323   1.25400000e+03 
90.287   1.12000000e+03 
90.251   9.34000000e+02 
90.215   8.35000000e+02 
90.179   7.41000000e+02 
90.143   7.14000000e+02 
90.107   6.92000000e+02 
90.071   5.91000000e+02 
90.035   5.67000000e+02 
89.999   4.77000000e+02 
89.963   4.65000000e+02 
89.927   4.42000000e+02 
89.891   3.86000000e+02 
89.855   3.90000000e+02 
89.820   3.75000000e+02 
89.784   3.43000000e+02 
89.748   3.03000000e+02 
89.712   3.27000000e+02 
89.676   3.07000000e+02 
89.640   3.11000000e+02 
89.604   2.92000000e+02 
89.568   3.08000000e+02 
89.532   2.60000000e+02 
89.496   2.78000000e+02 
89.460   2.71000000e+02 
89.424   2.40000000e+02 
89.388   2.31000000e+02 
89.352   2.47000000e+02 
89.316   2.27000000e+02 
89.280   2.47000000e+02 
89.245   2.26000000e+02 
89.209   2.27000000e+02 
89.173   2.34000000e+02 
89.137   2.04000000e+02 
89.101   1.99000000e+02 
89.065   2.00000000e+02 
89.029   2.04000000e+02 
88.993   1.91000000e+02 
88.957   1.94000000e+02 
88.921   2.12000000e+02 
88.885   2.13000000e+02 
88.849   2.35000000e+02 
88.813   1.91000000e+02 
88.777   1.83000000e+02 
88.741   1.90000000e+02 
88.705   1.95000000e+02 
88.670   2.02000000e+02 
88.634   1.74000000e+02 
88.598   2.01000000e+02 
88.562   1.74000000e+02 
88.526   1.93000000e+02 
88.490   1.81000000e+02 
88.454   1.81000000e+02 
88.418   1.93000000e+02 
88.382   1.98000000e+02 
88.346   1.60000000e+02 
88.310   1.93000000e+02 
88.274   1.88000000e+02 
88.238   1.92000000e+02 
88.202   1.80000000e+02 
88.166   1.57000000e+02 
88.130   1.87000000e+02 
88.095   1.75000000e+02 
88.059   1.61000000e+02 
88.023   1.72000000e+02 

