EXPERIMENT FILE
Version = 2

[ Experiment Parameters ]
Experiment Description= <none> 
Number_of_Regions_in_Experiment= 1 

Original_File_name= C:\alexesca\data\11302012_Au _4f_39nuetral_Mono282_400W.xps 
Instrument= HP ESCA West
Date= 11-30-2012
Time=  15:52:16

[ Layer Parameters ]
Layer_Type= XPS

[ Region 1 Parameters ]
Region_Description = Au 4f Dithered Scan                
BEcenter(eV) = 93.000000
BEwidth(eV) = 10.000000
BEstep(eV) = 0.035937
Dwell_Time(sec) = 1.000000
N_o_scans = 1  
N_o_Channels = 278  
Scan_mode = 0  (DITHERED)

[ L= 1 R= 1 ]
BEcenter= 93.000  
BEwidth= -9.955  
Excitation= 1486.600
Time_p_channel= 256.000 
Size= 278
97.977   1.99000000e+02 
97.941   2.03000000e+02 
97.905   2.27000000e+02 
97.870   2.05000000e+02 
97.834   2.22000000e+02 
97.798   2.43000000e+02 
97.762   2.13000000e+02 
97.726   2.21000000e+02 
97.690   2.11000000e+02 
97.654   2.33000000e+02 
97.618   2.28000000e+02 
97.582   2.10000000e+02 
97.546   2.28000000e+02 
97.510   2.05000000e+02 
97.474   2.21000000e+02 
97.438   2.37000000e+02 
97.402   2.21000000e+02 
97.366   2.15000000e+02 
97.330   1.91000000e+02 
97.295   2.12000000e+02 
97.259   2.29000000e+02 
97.223   2.26000000e+02 
97.187   2.21000000e+02 
97.151   2.42000000e+02 
97.115   2.14000000e+02 
97.079   2.20000000e+02 
97.043   2.39000000e+02 
97.007   2.49000000e+02 
96.971   2.24000000e+02 
96.935   2.32000000e+02 
96.899   2.51000000e+02 
96.863   2.27000000e+02 
96.827   2.56000000e+02 
96.791   2.31000000e+02 
96.755   2.34000000e+02 
96.720   2.37000000e+02 
96.684   2.39000000e+02 
96.648   2.65000000e+02 
96.612   2.63000000e+02 
96.576   2.42000000e+02 
96.540   2.49000000e+02 
96.504   2.60000000e+02 
96.468   2.55000000e+02 
96.432   2.44000000e+02 
96.396   3.07000000e+02 
96.360   2.85000000e+02 
96.324   2.64000000e+02 
96.288   2.76000000e+02 
96.252   3.22000000e+02 
96.216   2.84000000e+02 
96.180   3.05000000e+02 
96.145   2.77000000e+02 
96.109   3.21000000e+02 
96.073   3.22000000e+02 
96.037   3.37000000e+02 
96.001   3.30000000e+02 
95.965   3.40000000e+02 
95.929   3.55000000e+02 
95.893   3.79000000e+02 
95.857   3.93000000e+02 
95.821   4.23000000e+02 
95.785   4.09000000e+02 
95.749   4.24000000e+02 
95.713   4.32000000e+02 
95.677   4.33000000e+02 
95.641   4.75000000e+02 
95.605   5.04000000e+02 
95.570   4.67000000e+02 
95.534   5.13000000e+02 
95.498   5.38000000e+02 
95.462   5.82000000e+02 
95.426   5.62000000e+02 
95.390   6.40000000e+02 
95.354   6.42000000e+02 
95.318   5.90000000e+02 
95.282   6.62000000e+02 
95.246   7.76000000e+02 
95.210   7.08000000e+02 
95.174   7.36000000e+02 
95.138   8.06000000e+02 
95.102   8.28000000e+02 
95.066   8.65000000e+02 
95.030   9.30000000e+02 
94.995   9.42000000e+02 
94.959   9.53000000e+02 
94.923   1.01200000e+03 
94.887   1.04000000e+03 
94.851   1.08900000e+03 
94.815   1.14800000e+03 
94.779   1.12100000e+03 
94.743   1.15200000e+03 
94.707   1.18600000e+03 
94.671   1.22900000e+03 
94.635   1.19800000e+03 
94.599   1.22900000e+03 
94.563   1.19300000e+03 
94.527   1.25900000e+03 
94.491   1.24800000e+03 
94.455   1.23400000e+03 
94.420   1.14500000e+03 
94.384   1.11600000e+03 
94.348   1.09200000e+03 
94.312   1.05300000e+03 
94.276   9.84000000e+02 
94.240   8.85000000e+02 
94.204   8.34000000e+02 
94.168   7.35000000e+02 
94.132   7.55000000e+02 
94.096   6.01000000e+02 
94.060   6.08000000e+02 
94.024   5.30000000e+02 
93.988   4.97000000e+02 
93.952   4.40000000e+02 
93.916   4.34000000e+02 
93.880   3.89000000e+02 
93.845   3.75000000e+02 
93.809   3.55000000e+02 
93.773   3.35000000e+02 
93.737   3.33000000e+02 
93.701   2.85000000e+02 
93.665   2.96000000e+02 
93.629   3.18000000e+02 
93.593   2.33000000e+02 
93.557   2.50000000e+02 
93.521   2.28000000e+02 
93.485   2.75000000e+02 
93.449   2.50000000e+02 
93.413   2.64000000e+02 
93.377   2.31000000e+02 
93.341   2.48000000e+02 
93.305   2.38000000e+02 
93.270   2.84000000e+02 
93.234   2.19000000e+02 
93.198   2.39000000e+02 
93.162   2.52000000e+02 
93.126   2.49000000e+02 
93.090   2.39000000e+02 
93.054   2.40000000e+02 
93.018   2.19000000e+02 
92.982   2.43000000e+02 
92.946   2.30000000e+02 
92.910   2.35000000e+02 
92.874   2.34000000e+02 
92.838   2.34000000e+02 
92.802   2.25000000e+02 
92.766   2.41000000e+02 
92.730   2.64000000e+02 
92.695   2.90000000e+02 
92.659   2.61000000e+02 
92.623   2.66000000e+02 
92.587   2.70000000e+02 
92.551   2.84000000e+02 
92.515   3.01000000e+02 
92.479   3.27000000e+02 
92.443   3.19000000e+02 
92.407   2.95000000e+02 
92.371   3.37000000e+02 
92.335   3.37000000e+02 
92.299   3.40000000e+02 
92.263   3.35000000e+02 
92.227   3.68000000e+02 
92.191   3.78000000e+02 
92.155   3.80000000e+02 
92.120   4.12000000e+02 
92.084   4.41000000e+02 
92.048   4.31000000e+02 
92.012   4.78000000e+02 
91.976   4.47000000e+02 
91.940   4.98000000e+02 
91.904   4.97000000e+02 
91.868   5.53000000e+02 
91.832   5.65000000e+02 
91.796   6.68000000e+02 
91.760   6.22000000e+02 
91.724   6.68000000e+02 
91.688   6.86000000e+02 
91.652   7.41000000e+02 
91.616   7.62000000e+02 
91.580   7.65000000e+02 
91.545   8.78000000e+02 
91.509   8.62000000e+02 
91.473   8.70000000e+02 
91.437   9.90000000e+02 
91.401   1.05100000e+03 
91.365   9.62000000e+02 
91.329   1.11200000e+03 
91.293   1.11700000e+03 
91.257   1.18600000e+03 
91.221   1.28500000e+03 
91.185   1.26600000e+03 
91.149   1.32800000e+03 
91.113   1.37200000e+03 
91.077   1.32800000e+03 
91.041   1.44700000e+03 
91.005   1.49900000e+03 
90.970   1.51400000e+03 
90.934   1.46700000e+03 
90.898   1.50700000e+03 
90.862   1.54100000e+03 
90.826   1.49200000e+03 
90.790   1.44500000e+03 
90.754   1.36900000e+03 
90.718   1.33200000e+03 
90.682   1.33600000e+03 
90.646   1.21200000e+03 
90.610   1.13500000e+03 
90.574   1.13300000e+03 
90.538   9.94000000e+02 
90.502   8.31000000e+02 
90.466   7.61000000e+02 
90.430   7.01000000e+02 
90.395   5.94000000e+02 
90.359   5.67000000e+02 
90.323   4.80000000e+02 
90.287   4.73000000e+02 
90.251   4.47000000e+02 
90.215   3.64000000e+02 
90.179   3.09000000e+02 
90.143   2.89000000e+02 
90.107   2.62000000e+02 
90.071   2.59000000e+02 
90.035   2.48000000e+02 
89.999   2.20000000e+02 
89.963   2.22000000e+02 
89.927   1.86000000e+02 
89.891   1.98000000e+02 
89.855   1.77000000e+02 
89.820   1.68000000e+02 
89.784   1.99000000e+02 
89.748   1.52000000e+02 
89.712   1.64000000e+02 
89.676   1.68000000e+02 
89.640   1.43000000e+02 
89.604   1.26000000e+02 
89.568   1.37000000e+02 
89.532   1.30000000e+02 
89.496   1.17000000e+02 
89.460   1.13000000e+02 
89.424   1.24000000e+02 
89.388   1.36000000e+02 
89.352   1.33000000e+02 
89.316   1.16000000e+02 
89.280   1.10000000e+02 
89.245   1.12000000e+02 
89.209   1.08000000e+02 
89.173   1.14000000e+02 
89.137   1.15000000e+02 
89.101   1.08000000e+02 
89.065   1.03000000e+02 
89.029   1.00000000e+02 
88.993   9.10000000e+01 
88.957   1.06000000e+02 
88.921   7.30000000e+01 
88.885   9.50000000e+01 
88.849   9.60000000e+01 
88.813   8.60000000e+01 
88.777   1.08000000e+02 
88.741   8.30000000e+01 
88.705   9.90000000e+01 
88.670   1.06000000e+02 
88.634   8.30000000e+01 
88.598   9.20000000e+01 
88.562   1.00000000e+02 
88.526   9.70000000e+01 
88.490   8.20000000e+01 
88.454   1.00000000e+02 
88.418   1.10000000e+02 
88.382   9.00000000e+01 
88.346   9.40000000e+01 
88.310   1.19000000e+02 
88.274   8.70000000e+01 
88.238   8.80000000e+01 
88.202   8.50000000e+01 
88.166   9.20000000e+01 
88.130   7.80000000e+01 
88.095   9.60000000e+01 
88.059   8.40000000e+01 
88.023   9.80000000e+01 

