EXPERIMENT FILE
Version = 2

[ Experiment Parameters ]
Experiment Description= <none> 
Number_of_Regions_in_Experiment= 1 

Original_File_name= C:\alexesca\data\11302012_Au _4f_57nuetral+38_Mono276.xps 
Instrument= HP ESCA West
Date= 11-30-2012
Time=  14:43:44

[ Layer Parameters ]
Layer_Type= XPS

[ Region 1 Parameters ]
Region_Description = Au 4f Dithered Scan                
BEcenter(eV) = 93.000000
BEwidth(eV) = 10.000000
BEstep(eV) = 0.035937
Dwell_Time(sec) = 1.000000
N_o_scans = 1  
N_o_Channels = 278  
Scan_mode = 0  (DITHERED)

[ L= 1 R= 1 ]
BEcenter= 93.000  
BEwidth= -9.955  
Excitation= 1486.600
Time_p_channel= 256.000 
Size= 278
97.977   1.23300000e+03 
97.941   1.19500000e+03 
97.905   1.20200000e+03 
97.870   1.21500000e+03 
97.834   1.27300000e+03 
97.798   1.34600000e+03 
97.762   1.26900000e+03 
97.726   1.22300000e+03 
97.690   1.31100000e+03 
97.654   1.28200000e+03 
97.618   1.28900000e+03 
97.582   1.30700000e+03 
97.546   1.35400000e+03 
97.510   1.31400000e+03 
97.474   1.36300000e+03 
97.438   1.27900000e+03 
97.402   1.36100000e+03 
97.366   1.42900000e+03 
97.330   1.41200000e+03 
97.295   1.36900000e+03 
97.259   1.45400000e+03 
97.223   1.50600000e+03 
97.187   1.47900000e+03 
97.151   1.49700000e+03 
97.115   1.56400000e+03 
97.079   1.55900000e+03 
97.043   1.67900000e+03 
97.007   1.66200000e+03 
96.971   1.67300000e+03 
96.935   1.73000000e+03 
96.899   1.86700000e+03 
96.863   1.84300000e+03 
96.827   1.87600000e+03 
96.791   1.89500000e+03 
96.755   2.05200000e+03 
96.720   2.10800000e+03 
96.684   2.13900000e+03 
96.648   2.27700000e+03 
96.612   2.19000000e+03 
96.576   2.43300000e+03 
96.540   2.35400000e+03 
96.504   2.57900000e+03 
96.468   2.56600000e+03 
96.432   2.68500000e+03 
96.396   2.72700000e+03 
96.360   2.87000000e+03 
96.324   3.03400000e+03 
96.288   3.12500000e+03 
96.252   3.17500000e+03 
96.216   3.23900000e+03 
96.180   3.35600000e+03 
96.145   3.39500000e+03 
96.109   3.49500000e+03 
96.073   3.58600000e+03 
96.037   3.66100000e+03 
96.001   3.80700000e+03 
95.965   3.82000000e+03 
95.929   4.05300000e+03 
95.893   4.01400000e+03 
95.857   4.19500000e+03 
95.821   4.17000000e+03 
95.785   4.28400000e+03 
95.749   4.45700000e+03 
95.713   4.51500000e+03 
95.677   4.46600000e+03 
95.641   4.57100000e+03 
95.605   4.64400000e+03 
95.570   4.74600000e+03 
95.534   4.64100000e+03 
95.498   4.78900000e+03 
95.462   4.72700000e+03 
95.426   4.66200000e+03 
95.390   4.81600000e+03 
95.354   4.81700000e+03 
95.318   4.88600000e+03 
95.282   4.82400000e+03 
95.246   5.02700000e+03 
95.210   4.91500000e+03 
95.174   4.97400000e+03 
95.138   4.97700000e+03 
95.102   5.00300000e+03 
95.066   4.88000000e+03 
95.030   5.08800000e+03 
94.995   5.07700000e+03 
94.959   5.08200000e+03 
94.923   4.93400000e+03 
94.887   4.97400000e+03 
94.851   5.02300000e+03 
94.815   5.00500000e+03 
94.779   4.95000000e+03 
94.743   4.96000000e+03 
94.707   4.86300000e+03 
94.671   4.89700000e+03 
94.635   4.89400000e+03 
94.599   4.80100000e+03 
94.563   4.67900000e+03 
94.527   4.55900000e+03 
94.491   4.52100000e+03 
94.455   4.42300000e+03 
94.420   4.33200000e+03 
94.384   4.14800000e+03 
94.348   4.12900000e+03 
94.312   3.98100000e+03 
94.276   3.89200000e+03 
94.240   3.72500000e+03 
94.204   3.60100000e+03 
94.168   3.39400000e+03 
94.132   3.32400000e+03 
94.096   3.13300000e+03 
94.060   3.03800000e+03 
94.024   2.94500000e+03 
93.988   2.77900000e+03 
93.952   2.58600000e+03 
93.916   2.51800000e+03 
93.880   2.33600000e+03 
93.845   2.25700000e+03 
93.809   2.11800000e+03 
93.773   2.02800000e+03 
93.737   2.01000000e+03 
93.701   1.95200000e+03 
93.665   1.82600000e+03 
93.629   1.81000000e+03 
93.593   1.80800000e+03 
93.557   1.72000000e+03 
93.521   1.68200000e+03 
93.485   1.68000000e+03 
93.449   1.78700000e+03 
93.413   1.65600000e+03 
93.377   1.75500000e+03 
93.341   1.74400000e+03 
93.305   1.85500000e+03 
93.270   1.94700000e+03 
93.234   1.83400000e+03 
93.198   2.06600000e+03 
93.162   1.98400000e+03 
93.126   2.02600000e+03 
93.090   2.23000000e+03 
93.054   2.20800000e+03 
93.018   2.28700000e+03 
92.982   2.25200000e+03 
92.946   2.45900000e+03 
92.910   2.50700000e+03 
92.874   2.59500000e+03 
92.838   2.65600000e+03 
92.802   2.73800000e+03 
92.766   2.96100000e+03 
92.730   3.05400000e+03 
92.695   3.14100000e+03 
92.659   3.24200000e+03 
92.623   3.34700000e+03 
92.587   3.40700000e+03 
92.551   3.51500000e+03 
92.515   3.77400000e+03 
92.479   3.91100000e+03 
92.443   3.86700000e+03 
92.407   3.94200000e+03 
92.371   4.06600000e+03 
92.335   4.30200000e+03 
92.299   4.42400000e+03 
92.263   4.55400000e+03 
92.227   4.46000000e+03 
92.191   4.74300000e+03 
92.155   4.72400000e+03 
92.120   4.86900000e+03 
92.084   5.10100000e+03 
92.048   5.06300000e+03 
92.012   5.18000000e+03 
91.976   5.20800000e+03 
91.940   5.26400000e+03 
91.904   5.32200000e+03 
91.868   5.43100000e+03 
91.832   5.53900000e+03 
91.796   5.41100000e+03 
91.760   5.59000000e+03 
91.724   5.69900000e+03 
91.688   5.71400000e+03 
91.652   5.57600000e+03 
91.616   5.68600000e+03 
91.580   5.69900000e+03 
91.545   5.92000000e+03 
91.509   5.77200000e+03 
91.473   5.66200000e+03 
91.437   5.85100000e+03 
91.401   5.97100000e+03 
91.365   5.92800000e+03 
91.329   5.84200000e+03 
91.293   5.83200000e+03 
91.257   5.96600000e+03 
91.221   5.91900000e+03 
91.185   5.74600000e+03 
91.149   5.85200000e+03 
91.113   5.64000000e+03 
91.077   5.68200000e+03 
91.041   5.61100000e+03 
91.005   5.47600000e+03 
90.970   5.56500000e+03 
90.934   5.43600000e+03 
90.898   5.33500000e+03 
90.862   5.27600000e+03 
90.826   4.98100000e+03 
90.790   5.00400000e+03 
90.754   4.80800000e+03 
90.718   4.71200000e+03 
90.682   4.65400000e+03 
90.646   4.43400000e+03 
90.610   4.27800000e+03 
90.574   4.11400000e+03 
90.538   4.03300000e+03 
90.502   3.67200000e+03 
90.466   3.42400000e+03 
90.430   3.28300000e+03 
90.395   3.14900000e+03 
90.359   2.85600000e+03 
90.323   2.66400000e+03 
90.287   2.51900000e+03 
90.251   2.43200000e+03 
90.215   2.07500000e+03 
90.179   1.95600000e+03 
90.143   1.83600000e+03 
90.107   1.61200000e+03 
90.071   1.49700000e+03 
90.035   1.42700000e+03 
89.999   1.27600000e+03 
89.963   1.18400000e+03 
89.927   1.06500000e+03 
89.891   1.00800000e+03 
89.855   9.52000000e+02 
89.820   9.10000000e+02 
89.784   8.90000000e+02 
89.748   8.15000000e+02 
89.712   8.00000000e+02 
89.676   7.70000000e+02 
89.640   7.14000000e+02 
89.604   7.39000000e+02 
89.568   7.15000000e+02 
89.532   7.15000000e+02 
89.496   6.74000000e+02 
89.460   6.78000000e+02 
89.424   6.15000000e+02 
89.388   6.34000000e+02 
89.352   6.19000000e+02 
89.316   5.85000000e+02 
89.280   5.82000000e+02 
89.245   5.81000000e+02 
89.209   5.25000000e+02 
89.173   6.07000000e+02 
89.137   5.63000000e+02 
89.101   4.88000000e+02 
89.065   5.35000000e+02 
89.029   5.21000000e+02 
88.993   5.53000000e+02 
88.957   5.39000000e+02 
88.921   5.32000000e+02 
88.885   5.31000000e+02 
88.849   5.13000000e+02 
88.813   4.65000000e+02 
88.777   5.25000000e+02 
88.741   5.00000000e+02 
88.705   4.61000000e+02 
88.670   5.13000000e+02 
88.634   4.74000000e+02 
88.598   4.96000000e+02 
88.562   4.44000000e+02 
88.526   4.76000000e+02 
88.490   4.64000000e+02 
88.454   4.33000000e+02 
88.418   4.72000000e+02 
88.382   4.26000000e+02 
88.346   4.41000000e+02 
88.310   4.86000000e+02 
88.274   4.48000000e+02 
88.238   4.53000000e+02 
88.202   4.12000000e+02 
88.166   4.37000000e+02 
88.130   4.47000000e+02 
88.095   4.52000000e+02 
88.059   4.26000000e+02 
88.023   4.64000000e+02 

