EXPERIMENT FILE
Version = 2

[ Experiment Parameters ]
Experiment Description= <none> 
Number_of_Regions_in_Experiment= 1 

Original_File_name= C:\alexesca\data\11302012_Au _4f_57nuetral+13_Mono276.xps 
Instrument= HP ESCA West
Date= 11-30-2012
Time=  14:29:32

[ Layer Parameters ]
Layer_Type= XPS

[ Region 1 Parameters ]
Region_Description = Au 4f Dithered Scan                
BEcenter(eV) = 93.000000
BEwidth(eV) = 10.000000
BEstep(eV) = 0.035937
Dwell_Time(sec) = 1.000000
N_o_scans = 1  
N_o_Channels = 278  
Scan_mode = 0  (DITHERED)

[ L= 1 R= 1 ]
BEcenter= 93.000  
BEwidth= -9.955  
Excitation= 1486.600
Time_p_channel= 256.000 
Size= 278
97.977   9.50000000e+02 
97.941   9.67000000e+02 
97.905   9.58000000e+02 
97.870   1.00700000e+03 
97.834   9.52000000e+02 
97.798   9.87000000e+02 
97.762   1.01400000e+03 
97.726   1.00500000e+03 
97.690   1.03100000e+03 
97.654   9.50000000e+02 
97.618   9.94000000e+02 
97.582   1.02600000e+03 
97.546   1.03100000e+03 
97.510   1.07900000e+03 
97.474   1.05900000e+03 
97.438   1.04000000e+03 
97.402   9.70000000e+02 
97.366   1.05400000e+03 
97.330   1.07700000e+03 
97.295   1.00500000e+03 
97.259   1.13900000e+03 
97.223   1.04100000e+03 
97.187   1.11600000e+03 
97.151   1.10100000e+03 
97.115   1.18000000e+03 
97.079   1.16200000e+03 
97.043   1.18300000e+03 
97.007   1.20800000e+03 
96.971   1.21400000e+03 
96.935   1.25400000e+03 
96.899   1.17600000e+03 
96.863   1.28300000e+03 
96.827   1.28200000e+03 
96.791   1.33100000e+03 
96.755   1.33800000e+03 
96.720   1.38600000e+03 
96.684   1.47300000e+03 
96.648   1.43800000e+03 
96.612   1.54400000e+03 
96.576   1.58800000e+03 
96.540   1.60200000e+03 
96.504   1.60800000e+03 
96.468   1.72100000e+03 
96.432   1.75300000e+03 
96.396   1.75500000e+03 
96.360   1.88100000e+03 
96.324   1.89500000e+03 
96.288   2.01000000e+03 
96.252   1.98200000e+03 
96.216   2.09600000e+03 
96.180   2.14000000e+03 
96.145   2.19100000e+03 
96.109   2.25200000e+03 
96.073   2.30700000e+03 
96.037   2.39600000e+03 
96.001   2.49600000e+03 
95.965   2.56000000e+03 
95.929   2.64700000e+03 
95.893   2.74700000e+03 
95.857   2.76700000e+03 
95.821   2.93600000e+03 
95.785   3.10000000e+03 
95.749   3.02400000e+03 
95.713   3.07500000e+03 
95.677   3.37400000e+03 
95.641   3.27600000e+03 
95.605   3.49600000e+03 
95.570   3.60900000e+03 
95.534   3.57400000e+03 
95.498   3.86500000e+03 
95.462   3.85100000e+03 
95.426   3.91000000e+03 
95.390   3.98900000e+03 
95.354   4.07000000e+03 
95.318   4.21600000e+03 
95.282   4.27500000e+03 
95.246   4.36200000e+03 
95.210   4.53100000e+03 
95.174   4.44700000e+03 
95.138   4.53900000e+03 
95.102   4.65300000e+03 
95.066   4.66200000e+03 
95.030   4.78200000e+03 
94.995   4.72500000e+03 
94.959   4.81600000e+03 
94.923   4.76600000e+03 
94.887   4.68400000e+03 
94.851   4.71000000e+03 
94.815   4.71100000e+03 
94.779   4.71800000e+03 
94.743   4.70300000e+03 
94.707   4.67400000e+03 
94.671   4.61300000e+03 
94.635   4.32400000e+03 
94.599   4.18800000e+03 
94.563   4.09700000e+03 
94.527   4.03000000e+03 
94.491   3.81000000e+03 
94.455   3.78900000e+03 
94.420   3.50200000e+03 
94.384   3.31500000e+03 
94.348   3.23000000e+03 
94.312   3.01100000e+03 
94.276   2.86000000e+03 
94.240   2.64600000e+03 
94.204   2.47900000e+03 
94.168   2.33000000e+03 
94.132   2.29300000e+03 
94.096   2.06300000e+03 
94.060   1.96900000e+03 
94.024   1.81300000e+03 
93.988   1.76000000e+03 
93.952   1.63500000e+03 
93.916   1.52000000e+03 
93.880   1.50200000e+03 
93.845   1.42300000e+03 
93.809   1.31500000e+03 
93.773   1.36000000e+03 
93.737   1.33000000e+03 
93.701   1.28100000e+03 
93.665   1.23000000e+03 
93.629   1.22700000e+03 
93.593   1.19000000e+03 
93.557   1.18700000e+03 
93.521   1.17700000e+03 
93.485   1.19100000e+03 
93.449   1.19400000e+03 
93.413   1.19800000e+03 
93.377   1.28000000e+03 
93.341   1.27000000e+03 
93.305   1.19200000e+03 
93.270   1.23100000e+03 
93.234   1.26200000e+03 
93.198   1.31900000e+03 
93.162   1.34200000e+03 
93.126   1.32700000e+03 
93.090   1.40000000e+03 
93.054   1.39200000e+03 
93.018   1.47000000e+03 
92.982   1.50600000e+03 
92.946   1.50900000e+03 
92.910   1.61300000e+03 
92.874   1.56300000e+03 
92.838   1.69200000e+03 
92.802   1.77200000e+03 
92.766   1.78600000e+03 
92.730   1.93100000e+03 
92.695   1.96700000e+03 
92.659   2.07300000e+03 
92.623   2.06300000e+03 
92.587   2.21400000e+03 
92.551   2.25800000e+03 
92.515   2.24600000e+03 
92.479   2.35200000e+03 
92.443   2.42700000e+03 
92.407   2.51100000e+03 
92.371   2.59900000e+03 
92.335   2.58900000e+03 
92.299   2.83900000e+03 
92.263   2.94900000e+03 
92.227   3.00800000e+03 
92.191   3.26100000e+03 
92.155   3.36500000e+03 
92.120   3.34500000e+03 
92.084   3.48800000e+03 
92.048   3.61500000e+03 
92.012   3.71600000e+03 
91.976   3.71300000e+03 
91.940   3.92000000e+03 
91.904   4.08600000e+03 
91.868   4.26600000e+03 
91.832   4.26800000e+03 
91.796   4.41600000e+03 
91.760   4.52900000e+03 
91.724   4.66800000e+03 
91.688   4.79900000e+03 
91.652   4.80500000e+03 
91.616   5.12500000e+03 
91.580   5.04500000e+03 
91.545   5.20400000e+03 
91.509   5.24200000e+03 
91.473   5.46800000e+03 
91.437   5.41000000e+03 
91.401   5.66400000e+03 
91.365   5.52200000e+03 
91.329   5.59800000e+03 
91.293   5.65700000e+03 
91.257   5.55200000e+03 
91.221   5.80700000e+03 
91.185   5.46500000e+03 
91.149   5.63000000e+03 
91.113   5.62800000e+03 
91.077   5.61200000e+03 
91.041   5.36800000e+03 
91.005   5.29800000e+03 
90.970   5.17700000e+03 
90.934   4.93600000e+03 
90.898   4.89900000e+03 
90.862   4.80500000e+03 
90.826   4.48500000e+03 
90.790   4.30100000e+03 
90.754   3.97600000e+03 
90.718   3.87100000e+03 
90.682   3.56600000e+03 
90.646   3.39800000e+03 
90.610   3.16300000e+03 
90.574   2.83200000e+03 
90.538   2.58700000e+03 
90.502   2.38100000e+03 
90.466   2.20000000e+03 
90.430   1.98800000e+03 
90.395   1.86100000e+03 
90.359   1.68800000e+03 
90.323   1.53900000e+03 
90.287   1.43200000e+03 
90.251   1.32000000e+03 
90.215   1.16500000e+03 
90.179   1.09200000e+03 
90.143   1.03300000e+03 
90.107   9.65000000e+02 
90.071   8.77000000e+02 
90.035   8.38000000e+02 
89.999   7.93000000e+02 
89.963   7.48000000e+02 
89.927   7.47000000e+02 
89.891   6.90000000e+02 
89.855   6.33000000e+02 
89.820   6.60000000e+02 
89.784   6.07000000e+02 
89.748   5.93000000e+02 
89.712   6.10000000e+02 
89.676   5.98000000e+02 
89.640   5.47000000e+02 
89.604   5.32000000e+02 
89.568   5.31000000e+02 
89.532   5.57000000e+02 
89.496   5.43000000e+02 
89.460   5.44000000e+02 
89.424   5.43000000e+02 
89.388   4.87000000e+02 
89.352   4.85000000e+02 
89.316   4.45000000e+02 
89.280   4.61000000e+02 
89.245   4.46000000e+02 
89.209   4.63000000e+02 
89.173   4.77000000e+02 
89.137   4.05000000e+02 
89.101   4.43000000e+02 
89.065   4.05000000e+02 
89.029   3.63000000e+02 
88.993   4.10000000e+02 
88.957   4.14000000e+02 
88.921   4.26000000e+02 
88.885   4.10000000e+02 
88.849   4.30000000e+02 
88.813   3.83000000e+02 
88.777   3.91000000e+02 
88.741   3.85000000e+02 
88.705   3.75000000e+02 
88.670   3.73000000e+02 
88.634   4.15000000e+02 
88.598   3.66000000e+02 
88.562   3.86000000e+02 
88.526   3.88000000e+02 
88.490   3.76000000e+02 
88.454   4.02000000e+02 
88.418   3.47000000e+02 
88.382   3.68000000e+02 
88.346   3.87000000e+02 
88.310   3.91000000e+02 
88.274   3.58000000e+02 
88.238   3.77000000e+02 
88.202   3.62000000e+02 
88.166   3.97000000e+02 
88.130   3.57000000e+02 
88.095   3.89000000e+02 
88.059   3.56000000e+02 
88.023   3.48000000e+02 

