EXPERIMENT FILE
Version = 2

[ Experiment Parameters ]
Experiment Description= <none> 
Number_of_Regions_in_Experiment= 1 

Original_File_name= C:\alexesca\data\11302012_Au _4f_57-27nuetral_Mono276_400W.xps 
Instrument= HP ESCA West
Date= 11-30-2012
Time=  16:06:44

[ Layer Parameters ]
Layer_Type= XPS

[ Region 1 Parameters ]
Region_Description = Au 4f Dithered Scan                
BEcenter(eV) = 93.000000
BEwidth(eV) = 10.000000
BEstep(eV) = 0.035937
Dwell_Time(sec) = 1.000000
N_o_scans = 1  
N_o_Channels = 278  
Scan_mode = 0  (DITHERED)

[ L= 1 R= 1 ]
BEcenter= 93.000  
BEwidth= -9.955  
Excitation= 1486.600
Time_p_channel= 256.000 
Size= 278
97.977   1.38000000e+02 
97.941   1.52000000e+02 
97.905   1.57000000e+02 
97.870   1.52000000e+02 
97.834   1.44000000e+02 
97.798   1.58000000e+02 
97.762   1.43000000e+02 
97.726   1.51000000e+02 
97.690   1.25000000e+02 
97.654   1.51000000e+02 
97.618   1.52000000e+02 
97.582   1.63000000e+02 
97.546   1.59000000e+02 
97.510   1.39000000e+02 
97.474   1.40000000e+02 
97.438   1.42000000e+02 
97.402   1.54000000e+02 
97.366   1.60000000e+02 
97.330   1.41000000e+02 
97.295   1.69000000e+02 
97.259   1.55000000e+02 
97.223   1.29000000e+02 
97.187   1.76000000e+02 
97.151   1.88000000e+02 
97.115   1.61000000e+02 
97.079   1.53000000e+02 
97.043   1.64000000e+02 
97.007   1.72000000e+02 
96.971   1.43000000e+02 
96.935   1.68000000e+02 
96.899   1.77000000e+02 
96.863   1.39000000e+02 
96.827   1.93000000e+02 
96.791   1.55000000e+02 
96.755   1.91000000e+02 
96.720   1.88000000e+02 
96.684   1.82000000e+02 
96.648   1.91000000e+02 
96.612   1.92000000e+02 
96.576   1.79000000e+02 
96.540   2.26000000e+02 
96.504   1.98000000e+02 
96.468   2.23000000e+02 
96.432   2.02000000e+02 
96.396   1.91000000e+02 
96.360   2.12000000e+02 
96.324   2.30000000e+02 
96.288   2.41000000e+02 
96.252   2.50000000e+02 
96.216   2.62000000e+02 
96.180   2.28000000e+02 
96.145   2.60000000e+02 
96.109   2.80000000e+02 
96.073   2.96000000e+02 
96.037   2.99000000e+02 
96.001   3.17000000e+02 
95.965   3.39000000e+02 
95.929   3.09000000e+02 
95.893   3.67000000e+02 
95.857   3.79000000e+02 
95.821   4.11000000e+02 
95.785   3.87000000e+02 
95.749   4.29000000e+02 
95.713   4.33000000e+02 
95.677   4.63000000e+02 
95.641   4.97000000e+02 
95.605   5.32000000e+02 
95.570   5.47000000e+02 
95.534   5.88000000e+02 
95.498   6.16000000e+02 
95.462   6.10000000e+02 
95.426   6.50000000e+02 
95.390   6.36000000e+02 
95.354   7.19000000e+02 
95.318   7.91000000e+02 
95.282   7.60000000e+02 
95.246   7.82000000e+02 
95.210   8.36000000e+02 
95.174   8.34000000e+02 
95.138   8.07000000e+02 
95.102   8.53000000e+02 
95.066   8.49000000e+02 
95.030   8.17000000e+02 
94.995   8.97000000e+02 
94.959   8.38000000e+02 
94.923   8.19000000e+02 
94.887   7.65000000e+02 
94.851   7.80000000e+02 
94.815   6.95000000e+02 
94.779   6.49000000e+02 
94.743   6.23000000e+02 
94.707   5.59000000e+02 
94.671   5.52000000e+02 
94.635   4.74000000e+02 
94.599   4.75000000e+02 
94.563   4.24000000e+02 
94.527   3.60000000e+02 
94.491   3.30000000e+02 
94.455   3.40000000e+02 
94.420   2.99000000e+02 
94.384   2.85000000e+02 
94.348   2.56000000e+02 
94.312   2.29000000e+02 
94.276   2.30000000e+02 
94.240   2.44000000e+02 
94.204   2.14000000e+02 
94.168   2.10000000e+02 
94.132   1.81000000e+02 
94.096   2.02000000e+02 
94.060   1.58000000e+02 
94.024   1.57000000e+02 
93.988   1.52000000e+02 
93.952   1.74000000e+02 
93.916   1.68000000e+02 
93.880   1.69000000e+02 
93.845   1.63000000e+02 
93.809   1.68000000e+02 
93.773   1.43000000e+02 
93.737   1.66000000e+02 
93.701   1.59000000e+02 
93.665   1.42000000e+02 
93.629   1.74000000e+02 
93.593   1.47000000e+02 
93.557   1.51000000e+02 
93.521   1.63000000e+02 
93.485   1.28000000e+02 
93.449   1.49000000e+02 
93.413   1.34000000e+02 
93.377   1.30000000e+02 
93.341   1.62000000e+02 
93.305   1.45000000e+02 
93.270   1.38000000e+02 
93.234   1.44000000e+02 
93.198   1.55000000e+02 
93.162   1.58000000e+02 
93.126   1.52000000e+02 
93.090   1.51000000e+02 
93.054   1.60000000e+02 
93.018   1.49000000e+02 
92.982   1.73000000e+02 
92.946   1.59000000e+02 
92.910   1.68000000e+02 
92.874   1.70000000e+02 
92.838   2.07000000e+02 
92.802   1.84000000e+02 
92.766   2.19000000e+02 
92.730   1.94000000e+02 
92.695   2.07000000e+02 
92.659   2.36000000e+02 
92.623   2.08000000e+02 
92.587   2.26000000e+02 
92.551   2.30000000e+02 
92.515   2.66000000e+02 
92.479   2.43000000e+02 
92.443   2.83000000e+02 
92.407   2.93000000e+02 
92.371   2.92000000e+02 
92.335   3.20000000e+02 
92.299   3.52000000e+02 
92.263   3.47000000e+02 
92.227   3.61000000e+02 
92.191   4.23000000e+02 
92.155   4.09000000e+02 
92.120   4.40000000e+02 
92.084   4.61000000e+02 
92.048   4.98000000e+02 
92.012   5.33000000e+02 
91.976   5.19000000e+02 
91.940   5.69000000e+02 
91.904   5.68000000e+02 
91.868   6.32000000e+02 
91.832   6.95000000e+02 
91.796   7.14000000e+02 
91.760   7.24000000e+02 
91.724   7.65000000e+02 
91.688   8.12000000e+02 
91.652   8.89000000e+02 
91.616   8.79000000e+02 
91.580   9.52000000e+02 
91.545   9.55000000e+02 
91.509   1.00900000e+03 
91.473   1.00200000e+03 
91.437   1.01600000e+03 
91.401   1.05000000e+03 
91.365   9.73000000e+02 
91.329   9.89000000e+02 
91.293   1.02300000e+03 
91.257   9.43000000e+02 
91.221   9.28000000e+02 
91.185   9.06000000e+02 
91.149   8.37000000e+02 
91.113   7.53000000e+02 
91.077   7.13000000e+02 
91.041   7.01000000e+02 
91.005   6.27000000e+02 
90.970   5.61000000e+02 
90.934   4.50000000e+02 
90.898   4.74000000e+02 
90.862   3.90000000e+02 
90.826   3.42000000e+02 
90.790   3.26000000e+02 
90.754   2.98000000e+02 
90.718   2.53000000e+02 
90.682   2.28000000e+02 
90.646   2.15000000e+02 
90.610   2.05000000e+02 
90.574   1.96000000e+02 
90.538   1.62000000e+02 
90.502   1.66000000e+02 
90.466   1.46000000e+02 
90.430   1.45000000e+02 
90.395   1.31000000e+02 
90.359   1.21000000e+02 
90.323   1.08000000e+02 
90.287   1.30000000e+02 
90.251   9.90000000e+01 
90.215   1.10000000e+02 
90.179   1.00000000e+02 
90.143   9.60000000e+01 
90.107   9.40000000e+01 
90.071   9.20000000e+01 
90.035   1.01000000e+02 
89.999   9.40000000e+01 
89.963   9.10000000e+01 
89.927   8.10000000e+01 
89.891   1.04000000e+02 
89.855   6.90000000e+01 
89.820   8.40000000e+01 
89.784   8.50000000e+01 
89.748   8.80000000e+01 
89.712   9.20000000e+01 
89.676   7.60000000e+01 
89.640   7.70000000e+01 
89.604   8.40000000e+01 
89.568   6.60000000e+01 
89.532   7.70000000e+01 
89.496   7.40000000e+01 
89.460   6.90000000e+01 
89.424   6.90000000e+01 
89.388   6.90000000e+01 
89.352   8.00000000e+01 
89.316   8.20000000e+01 
89.280   6.30000000e+01 
89.245   5.70000000e+01 
89.209   7.00000000e+01 
89.173   6.40000000e+01 
89.137   8.00000000e+01 
89.101   6.30000000e+01 
89.065   7.40000000e+01 
89.029   7.10000000e+01 
88.993   6.70000000e+01 
88.957   6.10000000e+01 
88.921   5.40000000e+01 
88.885   6.40000000e+01 
88.849   5.60000000e+01 
88.813   6.30000000e+01 
88.777   5.30000000e+01 
88.741   7.60000000e+01 
88.705   5.60000000e+01 
88.670   5.80000000e+01 
88.634   6.20000000e+01 
88.598   7.30000000e+01 
88.562   6.10000000e+01 
88.526   5.50000000e+01 
88.490   6.00000000e+01 
88.454   5.70000000e+01 
88.418   8.30000000e+01 
88.382   7.20000000e+01 
88.346   5.70000000e+01 
88.310   5.70000000e+01 
88.274   4.80000000e+01 
88.238   5.70000000e+01 
88.202   5.30000000e+01 
88.166   6.20000000e+01 
88.130   5.50000000e+01 
88.095   5.50000000e+01 
88.059   5.30000000e+01 
88.023   6.20000000e+01 

