EXPERIMENT FILE
Version = 2

[ Experiment Parameters ]
Experiment Description= <none> 
Number_of_Regions_in_Experiment= 1 

Original_File_name= C:\alexesca\data\11302012_Au _4f_57nuetral-7_Mono276.xps 
Instrument= HP ESCA West
Date= 11-30-2012
Time=  14:13:06

[ Layer Parameters ]
Layer_Type= XPS

[ Region 1 Parameters ]
Region_Description = Au 4f Dithered Scan                
BEcenter(eV) = 93.000000
BEwidth(eV) = 10.000000
BEstep(eV) = 0.035937
Dwell_Time(sec) = 1.000000
N_o_scans = 1  
N_o_Channels = 278  
Scan_mode = 0  (DITHERED)

[ L= 1 R= 1 ]
BEcenter= 93.000  
BEwidth= -9.955  
Excitation= 1486.600
Time_p_channel= 256.000 
Size= 278
97.977   5.90000000e+02 
97.941   6.19000000e+02 
97.905   6.27000000e+02 
97.870   6.00000000e+02 
97.834   6.03000000e+02 
97.798   6.10000000e+02 
97.762   6.22000000e+02 
97.726   6.25000000e+02 
97.690   6.51000000e+02 
97.654   6.05000000e+02 
97.618   6.48000000e+02 
97.582   5.85000000e+02 
97.546   6.50000000e+02 
97.510   6.69000000e+02 
97.474   6.08000000e+02 
97.438   6.44000000e+02 
97.402   6.39000000e+02 
97.366   6.84000000e+02 
97.330   6.45000000e+02 
97.295   6.98000000e+02 
97.259   6.67000000e+02 
97.223   7.31000000e+02 
97.187   7.10000000e+02 
97.151   6.90000000e+02 
97.115   6.94000000e+02 
97.079   6.93000000e+02 
97.043   6.97000000e+02 
97.007   7.22000000e+02 
96.971   6.89000000e+02 
96.935   7.14000000e+02 
96.899   7.48000000e+02 
96.863   7.29000000e+02 
96.827   7.64000000e+02 
96.791   7.33000000e+02 
96.755   7.31000000e+02 
96.720   8.13000000e+02 
96.684   7.61000000e+02 
96.648   7.79000000e+02 
96.612   8.24000000e+02 
96.576   8.77000000e+02 
96.540   8.61000000e+02 
96.504   8.90000000e+02 
96.468   9.00000000e+02 
96.432   9.43000000e+02 
96.396   9.23000000e+02 
96.360   1.03500000e+03 
96.324   1.02100000e+03 
96.288   1.01000000e+03 
96.252   1.05100000e+03 
96.216   1.08100000e+03 
96.180   1.14900000e+03 
96.145   1.16900000e+03 
96.109   1.23700000e+03 
96.073   1.26400000e+03 
96.037   1.37800000e+03 
96.001   1.25400000e+03 
95.965   1.37300000e+03 
95.929   1.41800000e+03 
95.893   1.44900000e+03 
95.857   1.56400000e+03 
95.821   1.56900000e+03 
95.785   1.68200000e+03 
95.749   1.72200000e+03 
95.713   1.83800000e+03 
95.677   1.83600000e+03 
95.641   1.96300000e+03 
95.605   1.95700000e+03 
95.570   2.02500000e+03 
95.534   2.08100000e+03 
95.498   2.27700000e+03 
95.462   2.32300000e+03 
95.426   2.46700000e+03 
95.390   2.49300000e+03 
95.354   2.60800000e+03 
95.318   2.69300000e+03 
95.282   2.72700000e+03 
95.246   2.83100000e+03 
95.210   2.89100000e+03 
95.174   2.98700000e+03 
95.138   3.12600000e+03 
95.102   3.25200000e+03 
95.066   3.28900000e+03 
95.030   3.36600000e+03 
94.995   3.53500000e+03 
94.959   3.51600000e+03 
94.923   3.53500000e+03 
94.887   3.45500000e+03 
94.851   3.53500000e+03 
94.815   3.46000000e+03 
94.779   3.38700000e+03 
94.743   3.31600000e+03 
94.707   3.39400000e+03 
94.671   3.22000000e+03 
94.635   3.03200000e+03 
94.599   2.81500000e+03 
94.563   2.69400000e+03 
94.527   2.57400000e+03 
94.491   2.47600000e+03 
94.455   2.28100000e+03 
94.420   2.11500000e+03 
94.384   1.91700000e+03 
94.348   1.82800000e+03 
94.312   1.70500000e+03 
94.276   1.61900000e+03 
94.240   1.46000000e+03 
94.204   1.36200000e+03 
94.168   1.23600000e+03 
94.132   1.12800000e+03 
94.096   1.02900000e+03 
94.060   9.99000000e+02 
94.024   9.59000000e+02 
93.988   9.00000000e+02 
93.952   8.52000000e+02 
93.916   8.31000000e+02 
93.880   8.68000000e+02 
93.845   7.86000000e+02 
93.809   7.68000000e+02 
93.773   7.53000000e+02 
93.737   7.42000000e+02 
93.701   7.48000000e+02 
93.665   6.92000000e+02 
93.629   7.54000000e+02 
93.593   7.32000000e+02 
93.557   7.54000000e+02 
93.521   7.10000000e+02 
93.485   6.33000000e+02 
93.449   6.87000000e+02 
93.413   7.20000000e+02 
93.377   7.27000000e+02 
93.341   7.00000000e+02 
93.305   6.63000000e+02 
93.270   7.43000000e+02 
93.234   7.21000000e+02 
93.198   7.47000000e+02 
93.162   6.73000000e+02 
93.126   7.86000000e+02 
93.090   7.47000000e+02 
93.054   7.91000000e+02 
93.018   8.08000000e+02 
92.982   7.71000000e+02 
92.946   8.66000000e+02 
92.910   8.50000000e+02 
92.874   8.41000000e+02 
92.838   8.65000000e+02 
92.802   9.12000000e+02 
92.766   9.60000000e+02 
92.730   9.37000000e+02 
92.695   1.01200000e+03 
92.659   1.08500000e+03 
92.623   1.07200000e+03 
92.587   1.11700000e+03 
92.551   1.13800000e+03 
92.515   1.20500000e+03 
92.479   1.24600000e+03 
92.443   1.24400000e+03 
92.407   1.34400000e+03 
92.371   1.26500000e+03 
92.335   1.41500000e+03 
92.299   1.47800000e+03 
92.263   1.63800000e+03 
92.227   1.63900000e+03 
92.191   1.73500000e+03 
92.155   1.77600000e+03 
92.120   1.90100000e+03 
92.084   1.94600000e+03 
92.048   2.00500000e+03 
92.012   2.05800000e+03 
91.976   2.12200000e+03 
91.940   2.25000000e+03 
91.904   2.36700000e+03 
91.868   2.42500000e+03 
91.832   2.61700000e+03 
91.796   2.69000000e+03 
91.760   2.74200000e+03 
91.724   2.95200000e+03 
91.688   2.98900000e+03 
91.652   3.11600000e+03 
91.616   3.30700000e+03 
91.580   3.40800000e+03 
91.545   3.53500000e+03 
91.509   3.65200000e+03 
91.473   3.63500000e+03 
91.437   3.84400000e+03 
91.401   3.88900000e+03 
91.365   4.11800000e+03 
91.329   4.15000000e+03 
91.293   4.09600000e+03 
91.257   4.27000000e+03 
91.221   4.23600000e+03 
91.185   4.26300000e+03 
91.149   4.23800000e+03 
91.113   4.26200000e+03 
91.077   3.96400000e+03 
91.041   3.93300000e+03 
91.005   3.82700000e+03 
90.970   3.81500000e+03 
90.934   3.53700000e+03 
90.898   3.35500000e+03 
90.862   3.11200000e+03 
90.826   2.80700000e+03 
90.790   2.68500000e+03 
90.754   2.46100000e+03 
90.718   2.19600000e+03 
90.682   2.05400000e+03 
90.646   1.81800000e+03 
90.610   1.71600000e+03 
90.574   1.52100000e+03 
90.538   1.28200000e+03 
90.502   1.21200000e+03 
90.466   1.05800000e+03 
90.430   1.00500000e+03 
90.395   8.85000000e+02 
90.359   7.97000000e+02 
90.323   7.90000000e+02 
90.287   7.03000000e+02 
90.251   6.74000000e+02 
90.215   6.47000000e+02 
90.179   5.81000000e+02 
90.143   5.39000000e+02 
90.107   5.56000000e+02 
90.071   4.97000000e+02 
90.035   5.13000000e+02 
89.999   4.62000000e+02 
89.963   4.51000000e+02 
89.927   4.09000000e+02 
89.891   4.31000000e+02 
89.855   3.94000000e+02 
89.820   4.24000000e+02 
89.784   3.89000000e+02 
89.748   3.66000000e+02 
89.712   3.66000000e+02 
89.676   3.74000000e+02 
89.640   3.60000000e+02 
89.604   3.61000000e+02 
89.568   3.14000000e+02 
89.532   3.22000000e+02 
89.496   3.12000000e+02 
89.460   3.37000000e+02 
89.424   2.87000000e+02 
89.388   2.74000000e+02 
89.352   3.41000000e+02 
89.316   3.35000000e+02 
89.280   3.19000000e+02 
89.245   3.05000000e+02 
89.209   3.05000000e+02 
89.173   2.78000000e+02 
89.137   2.76000000e+02 
89.101   3.03000000e+02 
89.065   2.52000000e+02 
89.029   2.74000000e+02 
88.993   2.53000000e+02 
88.957   3.03000000e+02 
88.921   2.53000000e+02 
88.885   2.72000000e+02 
88.849   2.80000000e+02 
88.813   2.38000000e+02 
88.777   2.69000000e+02 
88.741   2.70000000e+02 
88.705   2.79000000e+02 
88.670   2.83000000e+02 
88.634   2.92000000e+02 
88.598   2.51000000e+02 
88.562   2.51000000e+02 
88.526   2.45000000e+02 
88.490   2.14000000e+02 
88.454   2.59000000e+02 
88.418   2.59000000e+02 
88.382   2.67000000e+02 
88.346   2.36000000e+02 
88.310   2.42000000e+02 
88.274   2.23000000e+02 
88.238   2.69000000e+02 
88.202   2.29000000e+02 
88.166   2.67000000e+02 
88.130   2.30000000e+02 
88.095   2.48000000e+02 
88.059   2.41000000e+02 
88.023   2.08000000e+02 

