EXPERIMENT FILE
Version = 2

[ Experiment Parameters ]
Experiment Description= <none> 
Number_of_Regions_in_Experiment= 1 

Original_File_name= C:\alexesca\data\10312012_Au _4f_57nuetral-18_Mono276.xps 
Instrument= HP ESCA West
Date= 11-30-2012
Time=  13:57:40

[ Layer Parameters ]
Layer_Type= XPS

[ Region 1 Parameters ]
Region_Description = Au 4f Dithered Scan                
BEcenter(eV) = 93.000000
BEwidth(eV) = 10.000000
BEstep(eV) = 0.035937
Dwell_Time(sec) = 1.000000
N_o_scans = 1  
N_o_Channels = 278  
Scan_mode = 0  (DITHERED)

[ L= 1 R= 1 ]
BEcenter= 93.000  
BEwidth= -9.955  
Excitation= 1486.600
Time_p_channel= 256.000 
Size= 278
97.977   4.42000000e+02 
97.941   4.37000000e+02 
97.905   4.36000000e+02 
97.870   4.26000000e+02 
97.834   4.30000000e+02 
97.798   4.40000000e+02 
97.762   4.53000000e+02 
97.726   4.28000000e+02 
97.690   4.44000000e+02 
97.654   4.25000000e+02 
97.618   4.22000000e+02 
97.582   4.22000000e+02 
97.546   4.45000000e+02 
97.510   4.56000000e+02 
97.474   4.16000000e+02 
97.438   4.75000000e+02 
97.402   4.53000000e+02 
97.366   4.37000000e+02 
97.330   5.00000000e+02 
97.295   4.06000000e+02 
97.259   4.60000000e+02 
97.223   4.78000000e+02 
97.187   4.60000000e+02 
97.151   4.53000000e+02 
97.115   4.32000000e+02 
97.079   5.18000000e+02 
97.043   5.22000000e+02 
97.007   4.62000000e+02 
96.971   4.92000000e+02 
96.935   5.02000000e+02 
96.899   5.14000000e+02 
96.863   4.99000000e+02 
96.827   5.08000000e+02 
96.791   5.23000000e+02 
96.755   4.89000000e+02 
96.720   5.15000000e+02 
96.684   5.58000000e+02 
96.648   5.44000000e+02 
96.612   5.52000000e+02 
96.576   5.98000000e+02 
96.540   5.16000000e+02 
96.504   5.68000000e+02 
96.468   5.98000000e+02 
96.432   5.98000000e+02 
96.396   6.24000000e+02 
96.360   6.13000000e+02 
96.324   6.33000000e+02 
96.288   6.35000000e+02 
96.252   7.20000000e+02 
96.216   6.77000000e+02 
96.180   7.27000000e+02 
96.145   7.69000000e+02 
96.109   7.86000000e+02 
96.073   7.97000000e+02 
96.037   7.49000000e+02 
96.001   8.38000000e+02 
95.965   8.96000000e+02 
95.929   9.04000000e+02 
95.893   9.66000000e+02 
95.857   9.90000000e+02 
95.821   1.00800000e+03 
95.785   1.07100000e+03 
95.749   1.15400000e+03 
95.713   1.19800000e+03 
95.677   1.19200000e+03 
95.641   1.26200000e+03 
95.605   1.37900000e+03 
95.570   1.35600000e+03 
95.534   1.41600000e+03 
95.498   1.45700000e+03 
95.462   1.53600000e+03 
95.426   1.62800000e+03 
95.390   1.71400000e+03 
95.354   1.79900000e+03 
95.318   1.86900000e+03 
95.282   1.88800000e+03 
95.246   1.94900000e+03 
95.210   2.06100000e+03 
95.174   2.12700000e+03 
95.138   2.20600000e+03 
95.102   2.22500000e+03 
95.066   2.34100000e+03 
95.030   2.36700000e+03 
94.995   2.39800000e+03 
94.959   2.47000000e+03 
94.923   2.48900000e+03 
94.887   2.61500000e+03 
94.851   2.55000000e+03 
94.815   2.52400000e+03 
94.779   2.41300000e+03 
94.743   2.55900000e+03 
94.707   2.34000000e+03 
94.671   2.25600000e+03 
94.635   2.12400000e+03 
94.599   1.99200000e+03 
94.563   1.89200000e+03 
94.527   1.79600000e+03 
94.491   1.64100000e+03 
94.455   1.46800000e+03 
94.420   1.41200000e+03 
94.384   1.25500000e+03 
94.348   1.14700000e+03 
94.312   1.05100000e+03 
94.276   9.89000000e+02 
94.240   9.29000000e+02 
94.204   8.47000000e+02 
94.168   7.61000000e+02 
94.132   7.45000000e+02 
94.096   7.14000000e+02 
94.060   6.65000000e+02 
94.024   6.57000000e+02 
93.988   5.72000000e+02 
93.952   6.10000000e+02 
93.916   5.32000000e+02 
93.880   5.55000000e+02 
93.845   5.26000000e+02 
93.809   5.04000000e+02 
93.773   5.23000000e+02 
93.737   5.23000000e+02 
93.701   4.72000000e+02 
93.665   5.02000000e+02 
93.629   4.80000000e+02 
93.593   4.60000000e+02 
93.557   4.78000000e+02 
93.521   4.42000000e+02 
93.485   4.83000000e+02 
93.449   4.71000000e+02 
93.413   4.24000000e+02 
93.377   4.13000000e+02 
93.341   4.84000000e+02 
93.305   4.63000000e+02 
93.270   5.08000000e+02 
93.234   4.61000000e+02 
93.198   4.77000000e+02 
93.162   4.99000000e+02 
93.126   4.93000000e+02 
93.090   4.78000000e+02 
93.054   4.94000000e+02 
93.018   5.28000000e+02 
92.982   5.08000000e+02 
92.946   5.06000000e+02 
92.910   5.40000000e+02 
92.874   5.44000000e+02 
92.838   5.43000000e+02 
92.802   5.13000000e+02 
92.766   5.62000000e+02 
92.730   5.91000000e+02 
92.695   6.07000000e+02 
92.659   6.52000000e+02 
92.623   6.44000000e+02 
92.587   6.46000000e+02 
92.551   6.55000000e+02 
92.515   6.98000000e+02 
92.479   7.49000000e+02 
92.443   7.69000000e+02 
92.407   8.32000000e+02 
92.371   8.04000000e+02 
92.335   8.91000000e+02 
92.299   8.96000000e+02 
92.263   9.33000000e+02 
92.227   9.30000000e+02 
92.191   1.05600000e+03 
92.155   1.05200000e+03 
92.120   1.12700000e+03 
92.084   1.15900000e+03 
92.048   1.25800000e+03 
92.012   1.35800000e+03 
91.976   1.30300000e+03 
91.940   1.51200000e+03 
91.904   1.54300000e+03 
91.868   1.57500000e+03 
91.832   1.66600000e+03 
91.796   1.78600000e+03 
91.760   1.84300000e+03 
91.724   1.98900000e+03 
91.688   1.99600000e+03 
91.652   2.20700000e+03 
91.616   2.16600000e+03 
91.580   2.37600000e+03 
91.545   2.47200000e+03 
91.509   2.52100000e+03 
91.473   2.61200000e+03 
91.437   2.68700000e+03 
91.401   2.76700000e+03 
91.365   2.88100000e+03 
91.329   3.02700000e+03 
91.293   3.02200000e+03 
91.257   3.00600000e+03 
91.221   3.09400000e+03 
91.185   3.06800000e+03 
91.149   3.06400000e+03 
91.113   3.06500000e+03 
91.077   2.87000000e+03 
91.041   2.79200000e+03 
91.005   2.70900000e+03 
90.970   2.62700000e+03 
90.934   2.47600000e+03 
90.898   2.23300000e+03 
90.862   2.02900000e+03 
90.826   1.86500000e+03 
90.790   1.75500000e+03 
90.754   1.55900000e+03 
90.718   1.43500000e+03 
90.682   1.27400000e+03 
90.646   1.10700000e+03 
90.610   1.00400000e+03 
90.574   8.43000000e+02 
90.538   8.37000000e+02 
90.502   7.87000000e+02 
90.466   6.67000000e+02 
90.430   5.97000000e+02 
90.395   5.91000000e+02 
90.359   4.95000000e+02 
90.323   4.72000000e+02 
90.287   4.66000000e+02 
90.251   4.62000000e+02 
90.215   3.79000000e+02 
90.179   4.01000000e+02 
90.143   3.79000000e+02 
90.107   3.50000000e+02 
90.071   3.23000000e+02 
90.035   3.27000000e+02 
89.999   3.25000000e+02 
89.963   3.02000000e+02 
89.927   2.86000000e+02 
89.891   2.77000000e+02 
89.855   2.46000000e+02 
89.820   2.62000000e+02 
89.784   2.56000000e+02 
89.748   2.50000000e+02 
89.712   2.33000000e+02 
89.676   2.33000000e+02 
89.640   2.80000000e+02 
89.604   2.46000000e+02 
89.568   2.41000000e+02 
89.532   2.36000000e+02 
89.496   2.25000000e+02 
89.460   2.20000000e+02 
89.424   2.36000000e+02 
89.388   2.41000000e+02 
89.352   2.13000000e+02 
89.316   1.86000000e+02 
89.280   1.95000000e+02 
89.245   1.84000000e+02 
89.209   2.03000000e+02 
89.173   1.80000000e+02 
89.137   2.00000000e+02 
89.101   1.88000000e+02 
89.065   1.93000000e+02 
89.029   1.98000000e+02 
88.993   2.00000000e+02 
88.957   2.10000000e+02 
88.921   1.81000000e+02 
88.885   1.89000000e+02 
88.849   2.13000000e+02 
88.813   2.11000000e+02 
88.777   1.82000000e+02 
88.741   1.95000000e+02 
88.705   1.91000000e+02 
88.670   2.00000000e+02 
88.634   1.68000000e+02 
88.598   1.62000000e+02 
88.562   1.73000000e+02 
88.526   1.94000000e+02 
88.490   1.88000000e+02 
88.454   1.77000000e+02 
88.418   1.65000000e+02 
88.382   1.75000000e+02 
88.346   1.51000000e+02 
88.310   1.89000000e+02 
88.274   1.65000000e+02 
88.238   1.97000000e+02 
88.202   1.40000000e+02 
88.166   2.01000000e+02 
88.130   1.76000000e+02 
88.095   1.75000000e+02 
88.059   1.56000000e+02 
88.023   1.77000000e+02 

