EXPERIMENT FILE
Version = 2

[ Experiment Parameters ]
Experiment Description= <none> 
Number_of_Regions_in_Experiment= 1 

Original_File_name= C:\alexesca\data\12072012_Au _4f_New_Annode_400W_39deg_39N.xps 
Instrument= HP ESCA West
Date= 12-10-2012
Time=  13:47:05

[ Layer Parameters ]
Layer_Type= XPS

[ Region 1 Parameters ]
Region_Description = Au 4f Dithered Scan                
BEcenter(eV) = 93.000000
BEwidth(eV) = 10.000000
BEstep(eV) = 0.035937
Dwell_Time(sec) = 1.000000
N_o_scans = 1  
N_o_Channels = 278  
Scan_mode = 0  (DITHERED)

[ L= 1 R= 1 ]
BEcenter= 93.000  
BEwidth= -9.955  
Excitation= 1486.600
Time_p_channel= 256.000 
Size= 278
97.977   2.77000000e+02 
97.941   2.57000000e+02 
97.905   2.75000000e+02 
97.870   3.41000000e+02 
97.834   2.62000000e+02 
97.798   2.57000000e+02 
97.762   2.89000000e+02 
97.726   2.93000000e+02 
97.690   2.68000000e+02 
97.654   2.85000000e+02 
97.618   3.03000000e+02 
97.582   2.81000000e+02 
97.546   3.19000000e+02 
97.510   2.84000000e+02 
97.474   3.06000000e+02 
97.438   2.95000000e+02 
97.402   3.16000000e+02 
97.366   3.13000000e+02 
97.330   2.84000000e+02 
97.295   2.95000000e+02 
97.259   3.03000000e+02 
97.223   2.94000000e+02 
97.187   2.78000000e+02 
97.151   3.01000000e+02 
97.115   3.16000000e+02 
97.079   2.87000000e+02 
97.043   2.91000000e+02 
97.007   3.17000000e+02 
96.971   3.07000000e+02 
96.935   3.29000000e+02 
96.899   3.19000000e+02 
96.863   3.32000000e+02 
96.827   3.42000000e+02 
96.791   3.12000000e+02 
96.755   3.31000000e+02 
96.720   3.59000000e+02 
96.684   3.49000000e+02 
96.648   3.75000000e+02 
96.612   3.39000000e+02 
96.576   3.37000000e+02 
96.540   3.85000000e+02 
96.504   3.63000000e+02 
96.468   3.88000000e+02 
96.432   3.90000000e+02 
96.396   4.19000000e+02 
96.360   4.13000000e+02 
96.324   3.88000000e+02 
96.288   3.90000000e+02 
96.252   3.92000000e+02 
96.216   4.42000000e+02 
96.180   4.24000000e+02 
96.145   4.41000000e+02 
96.109   4.58000000e+02 
96.073   4.88000000e+02 
96.037   4.90000000e+02 
96.001   5.32000000e+02 
95.965   4.93000000e+02 
95.929   5.56000000e+02 
95.893   5.81000000e+02 
95.857   5.85000000e+02 
95.821   6.27000000e+02 
95.785   6.18000000e+02 
95.749   6.99000000e+02 
95.713   6.88000000e+02 
95.677   6.78000000e+02 
95.641   7.63000000e+02 
95.605   7.56000000e+02 
95.570   7.75000000e+02 
95.534   7.98000000e+02 
95.498   8.32000000e+02 
95.462   8.38000000e+02 
95.426   9.62000000e+02 
95.390   9.52000000e+02 
95.354   9.99000000e+02 
95.318   1.02000000e+03 
95.282   1.04900000e+03 
95.246   1.02300000e+03 
95.210   1.19700000e+03 
95.174   1.18500000e+03 
95.138   1.17600000e+03 
95.102   1.26200000e+03 
95.066   1.26600000e+03 
95.030   1.33000000e+03 
94.995   1.36300000e+03 
94.959   1.46500000e+03 
94.923   1.39600000e+03 
94.887   1.44200000e+03 
94.851   1.51100000e+03 
94.815   1.53300000e+03 
94.779   1.52800000e+03 
94.743   1.56400000e+03 
94.707   1.63100000e+03 
94.671   1.54200000e+03 
94.635   1.60400000e+03 
94.599   1.55800000e+03 
94.563   1.49300000e+03 
94.527   1.52200000e+03 
94.491   1.54600000e+03 
94.455   1.46100000e+03 
94.420   1.41500000e+03 
94.384   1.27600000e+03 
94.348   1.26600000e+03 
94.312   1.16300000e+03 
94.276   1.08600000e+03 
94.240   1.03700000e+03 
94.204   9.44000000e+02 
94.168   8.86000000e+02 
94.132   8.08000000e+02 
94.096   7.32000000e+02 
94.060   7.08000000e+02 
94.024   5.99000000e+02 
93.988   5.71000000e+02 
93.952   5.29000000e+02 
93.916   5.41000000e+02 
93.880   4.60000000e+02 
93.845   4.50000000e+02 
93.809   4.09000000e+02 
93.773   3.82000000e+02 
93.737   3.86000000e+02 
93.701   3.88000000e+02 
93.665   3.43000000e+02 
93.629   3.42000000e+02 
93.593   3.42000000e+02 
93.557   3.34000000e+02 
93.521   3.55000000e+02 
93.485   3.37000000e+02 
93.449   3.53000000e+02 
93.413   3.61000000e+02 
93.377   3.32000000e+02 
93.341   3.11000000e+02 
93.305   2.94000000e+02 
93.270   3.43000000e+02 
93.234   2.92000000e+02 
93.198   3.43000000e+02 
93.162   3.42000000e+02 
93.126   3.05000000e+02 
93.090   3.45000000e+02 
93.054   3.45000000e+02 
93.018   3.13000000e+02 
92.982   3.31000000e+02 
92.946   3.30000000e+02 
92.910   3.64000000e+02 
92.874   3.41000000e+02 
92.838   3.47000000e+02 
92.802   3.39000000e+02 
92.766   3.83000000e+02 
92.730   3.32000000e+02 
92.695   3.97000000e+02 
92.659   3.79000000e+02 
92.623   4.14000000e+02 
92.587   4.46000000e+02 
92.551   4.34000000e+02 
92.515   4.37000000e+02 
92.479   4.10000000e+02 
92.443   4.58000000e+02 
92.407   4.32000000e+02 
92.371   4.68000000e+02 
92.335   5.22000000e+02 
92.299   5.25000000e+02 
92.263   5.52000000e+02 
92.227   5.42000000e+02 
92.191   6.27000000e+02 
92.155   6.38000000e+02 
92.120   6.11000000e+02 
92.084   6.81000000e+02 
92.048   7.08000000e+02 
92.012   7.07000000e+02 
91.976   7.44000000e+02 
91.940   8.45000000e+02 
91.904   8.17000000e+02 
91.868   8.59000000e+02 
91.832   8.88000000e+02 
91.796   9.15000000e+02 
91.760   9.46000000e+02 
91.724   1.05100000e+03 
91.688   1.02500000e+03 
91.652   1.14700000e+03 
91.616   1.16900000e+03 
91.580   1.18600000e+03 
91.545   1.23100000e+03 
91.509   1.20300000e+03 
91.473   1.31400000e+03 
91.437   1.35700000e+03 
91.401   1.45700000e+03 
91.365   1.42300000e+03 
91.329   1.59000000e+03 
91.293   1.56300000e+03 
91.257   1.59400000e+03 
91.221   1.71800000e+03 
91.185   1.68400000e+03 
91.149   1.81600000e+03 
91.113   1.82400000e+03 
91.077   1.83300000e+03 
91.041   1.77200000e+03 
91.005   1.88900000e+03 
90.970   1.94500000e+03 
90.934   1.93500000e+03 
90.898   1.88700000e+03 
90.862   1.93700000e+03 
90.826   1.86800000e+03 
90.790   1.78800000e+03 
90.754   1.71300000e+03 
90.718   1.63900000e+03 
90.682   1.57300000e+03 
90.646   1.44000000e+03 
90.610   1.37400000e+03 
90.574   1.32200000e+03 
90.538   1.18500000e+03 
90.502   1.04400000e+03 
90.466   1.01400000e+03 
90.430   8.81000000e+02 
90.395   7.71000000e+02 
90.359   6.73000000e+02 
90.323   6.30000000e+02 
90.287   5.32000000e+02 
90.251   5.14000000e+02 
90.215   4.91000000e+02 
90.179   4.02000000e+02 
90.143   3.72000000e+02 
90.107   3.50000000e+02 
90.071   3.35000000e+02 
90.035   3.02000000e+02 
89.999   2.81000000e+02 
89.963   2.74000000e+02 
89.927   2.58000000e+02 
89.891   2.04000000e+02 
89.855   2.36000000e+02 
89.820   2.45000000e+02 
89.784   2.14000000e+02 
89.748   1.97000000e+02 
89.712   1.88000000e+02 
89.676   1.79000000e+02 
89.640   1.74000000e+02 
89.604   1.74000000e+02 
89.568   1.87000000e+02 
89.532   1.67000000e+02 
89.496   1.82000000e+02 
89.460   1.63000000e+02 
89.424   1.54000000e+02 
89.388   1.63000000e+02 
89.352   1.64000000e+02 
89.316   1.53000000e+02 
89.280   1.51000000e+02 
89.245   1.41000000e+02 
89.209   1.59000000e+02 
89.173   1.43000000e+02 
89.137   1.40000000e+02 
89.101   1.23000000e+02 
89.065   1.23000000e+02 
89.029   1.33000000e+02 
88.993   1.37000000e+02 
88.957   1.42000000e+02 
88.921   1.03000000e+02 
88.885   1.37000000e+02 
88.849   1.37000000e+02 
88.813   1.38000000e+02 
88.777   1.23000000e+02 
88.741   1.31000000e+02 
88.705   1.04000000e+02 
88.670   1.31000000e+02 
88.634   1.18000000e+02 
88.598   1.30000000e+02 
88.562   1.24000000e+02 
88.526   1.17000000e+02 
88.490   1.10000000e+02 
88.454   1.35000000e+02 
88.418   1.16000000e+02 
88.382   1.06000000e+02 
88.346   1.22000000e+02 
88.310   1.19000000e+02 
88.274   1.04000000e+02 
88.238   1.05000000e+02 
88.202   1.16000000e+02 
88.166   1.08000000e+02 
88.130   1.10000000e+02 
88.095   1.03000000e+02 
88.059   1.25000000e+02 
88.023   1.19000000e+02 

