EXPERIMENT FILE
Version = 2

[ Experiment Parameters ]
Experiment Description= <none> 
Number_of_Regions_in_Experiment= 1 

Original_File_name= C:\alexesca\data\12072012_Au _4f_New_Annode_400W_39deg.xps 
Instrument= HP ESCA West
Date= 12-10-2012
Time=  13:16:37

[ Layer Parameters ]
Layer_Type= XPS

[ Region 1 Parameters ]
Region_Description = Au 4f Dithered Scan                
BEcenter(eV) = 93.000000
BEwidth(eV) = 10.000000
BEstep(eV) = 0.035937
Dwell_Time(sec) = 1.000000
N_o_scans = 1  
N_o_Channels = 278  
Scan_mode = 0  (DITHERED)

[ L= 1 R= 1 ]
BEcenter= 93.000  
BEwidth= -9.955  
Excitation= 1486.600
Time_p_channel= 256.000 
Size= 278
97.977   2.97000000e+02 
97.941   3.18000000e+02 
97.905   3.09000000e+02 
97.870   3.16000000e+02 
97.834   3.16000000e+02 
97.798   2.99000000e+02 
97.762   3.03000000e+02 
97.726   3.00000000e+02 
97.690   3.04000000e+02 
97.654   3.11000000e+02 
97.618   3.07000000e+02 
97.582   3.26000000e+02 
97.546   3.09000000e+02 
97.510   2.93000000e+02 
97.474   3.45000000e+02 
97.438   3.38000000e+02 
97.402   2.98000000e+02 
97.366   3.21000000e+02 
97.330   3.31000000e+02 
97.295   3.40000000e+02 
97.259   3.40000000e+02 
97.223   3.60000000e+02 
97.187   3.44000000e+02 
97.151   3.61000000e+02 
97.115   3.66000000e+02 
97.079   4.02000000e+02 
97.043   3.78000000e+02 
97.007   4.39000000e+02 
96.971   4.00000000e+02 
96.935   3.92000000e+02 
96.899   4.17000000e+02 
96.863   4.19000000e+02 
96.827   4.14000000e+02 
96.791   4.58000000e+02 
96.755   4.48000000e+02 
96.720   4.67000000e+02 
96.684   4.94000000e+02 
96.648   4.94000000e+02 
96.612   5.02000000e+02 
96.576   5.48000000e+02 
96.540   5.45000000e+02 
96.504   5.56000000e+02 
96.468   5.30000000e+02 
96.432   5.86000000e+02 
96.396   6.13000000e+02 
96.360   6.57000000e+02 
96.324   6.37000000e+02 
96.288   6.59000000e+02 
96.252   6.57000000e+02 
96.216   7.38000000e+02 
96.180   8.17000000e+02 
96.145   7.81000000e+02 
96.109   8.56000000e+02 
96.073   8.01000000e+02 
96.037   8.55000000e+02 
96.001   9.00000000e+02 
95.965   9.66000000e+02 
95.929   9.75000000e+02 
95.893   1.03300000e+03 
95.857   1.08000000e+03 
95.821   1.08300000e+03 
95.785   1.11600000e+03 
95.749   1.10700000e+03 
95.713   1.21200000e+03 
95.677   1.25400000e+03 
95.641   1.25400000e+03 
95.605   1.30800000e+03 
95.570   1.42400000e+03 
95.534   1.45700000e+03 
95.498   1.41100000e+03 
95.462   1.44300000e+03 
95.426   1.46400000e+03 
95.390   1.55400000e+03 
95.354   1.59800000e+03 
95.318   1.60500000e+03 
95.282   1.62600000e+03 
95.246   1.61500000e+03 
95.210   1.55100000e+03 
95.174   1.61300000e+03 
95.138   1.51900000e+03 
95.102   1.52200000e+03 
95.066   1.43500000e+03 
95.030   1.36100000e+03 
94.995   1.33200000e+03 
94.959   1.26100000e+03 
94.923   1.16900000e+03 
94.887   1.11500000e+03 
94.851   9.89000000e+02 
94.815   9.47000000e+02 
94.779   8.57000000e+02 
94.743   8.13000000e+02 
94.707   7.95000000e+02 
94.671   6.87000000e+02 
94.635   6.45000000e+02 
94.599   5.85000000e+02 
94.563   5.33000000e+02 
94.527   5.12000000e+02 
94.491   5.05000000e+02 
94.455   4.71000000e+02 
94.420   4.47000000e+02 
94.384   3.93000000e+02 
94.348   3.91000000e+02 
94.312   3.90000000e+02 
94.276   3.73000000e+02 
94.240   3.61000000e+02 
94.204   3.67000000e+02 
94.168   3.67000000e+02 
94.132   3.79000000e+02 
94.096   3.06000000e+02 
94.060   3.52000000e+02 
94.024   3.35000000e+02 
93.988   3.06000000e+02 
93.952   3.12000000e+02 
93.916   3.00000000e+02 
93.880   3.31000000e+02 
93.845   3.12000000e+02 
93.809   3.29000000e+02 
93.773   2.84000000e+02 
93.737   3.02000000e+02 
93.701   2.88000000e+02 
93.665   3.23000000e+02 
93.629   3.45000000e+02 
93.593   3.34000000e+02 
93.557   3.44000000e+02 
93.521   3.12000000e+02 
93.485   3.16000000e+02 
93.449   3.37000000e+02 
93.413   3.63000000e+02 
93.377   3.59000000e+02 
93.341   3.45000000e+02 
93.305   3.49000000e+02 
93.270   3.67000000e+02 
93.234   4.14000000e+02 
93.198   4.05000000e+02 
93.162   4.23000000e+02 
93.126   3.88000000e+02 
93.090   4.45000000e+02 
93.054   4.41000000e+02 
93.018   4.94000000e+02 
92.982   4.75000000e+02 
92.946   4.71000000e+02 
92.910   5.37000000e+02 
92.874   5.46000000e+02 
92.838   5.63000000e+02 
92.802   5.25000000e+02 
92.766   6.04000000e+02 
92.730   6.33000000e+02 
92.695   6.33000000e+02 
92.659   6.52000000e+02 
92.623   7.13000000e+02 
92.587   7.55000000e+02 
92.551   7.65000000e+02 
92.515   8.03000000e+02 
92.479   8.25000000e+02 
92.443   8.74000000e+02 
92.407   8.84000000e+02 
92.371   8.79000000e+02 
92.335   9.21000000e+02 
92.299   9.34000000e+02 
92.263   1.09300000e+03 
92.227   1.12200000e+03 
92.191   1.13900000e+03 
92.155   1.30000000e+03 
92.120   1.25000000e+03 
92.084   1.31600000e+03 
92.048   1.42200000e+03 
92.012   1.41700000e+03 
91.976   1.41500000e+03 
91.940   1.56200000e+03 
91.904   1.61100000e+03 
91.868   1.61400000e+03 
91.832   1.67700000e+03 
91.796   1.73000000e+03 
91.760   1.79900000e+03 
91.724   1.84700000e+03 
91.688   1.86000000e+03 
91.652   1.96200000e+03 
91.616   1.81400000e+03 
91.580   1.83200000e+03 
91.545   1.90800000e+03 
91.509   1.88300000e+03 
91.473   1.91000000e+03 
91.437   1.83700000e+03 
91.401   1.78100000e+03 
91.365   1.73500000e+03 
91.329   1.68000000e+03 
91.293   1.55600000e+03 
91.257   1.52300000e+03 
91.221   1.43900000e+03 
91.185   1.27300000e+03 
91.149   1.22400000e+03 
91.113   1.09000000e+03 
91.077   9.94000000e+02 
91.041   8.84000000e+02 
91.005   7.97000000e+02 
90.970   6.83000000e+02 
90.934   6.88000000e+02 
90.898   5.82000000e+02 
90.862   5.33000000e+02 
90.826   4.84000000e+02 
90.790   4.34000000e+02 
90.754   3.98000000e+02 
90.718   3.90000000e+02 
90.682   3.29000000e+02 
90.646   3.20000000e+02 
90.610   2.50000000e+02 
90.574   2.84000000e+02 
90.538   2.33000000e+02 
90.502   2.53000000e+02 
90.466   2.72000000e+02 
90.430   2.35000000e+02 
90.395   2.23000000e+02 
90.359   2.14000000e+02 
90.323   2.24000000e+02 
90.287   2.11000000e+02 
90.251   1.97000000e+02 
90.215   1.97000000e+02 
90.179   2.17000000e+02 
90.143   1.77000000e+02 
90.107   1.45000000e+02 
90.071   1.86000000e+02 
90.035   1.72000000e+02 
89.999   1.43000000e+02 
89.963   1.31000000e+02 
89.927   1.59000000e+02 
89.891   1.59000000e+02 
89.855   1.41000000e+02 
89.820   1.47000000e+02 
89.784   1.42000000e+02 
89.748   1.44000000e+02 
89.712   1.37000000e+02 
89.676   1.41000000e+02 
89.640   1.33000000e+02 
89.604   1.39000000e+02 
89.568   1.23000000e+02 
89.532   1.24000000e+02 
89.496   1.23000000e+02 
89.460   1.37000000e+02 
89.424   1.09000000e+02 
89.388   1.42000000e+02 
89.352   1.22000000e+02 
89.316   1.40000000e+02 
89.280   1.36000000e+02 
89.245   1.12000000e+02 
89.209   1.16000000e+02 
89.173   1.30000000e+02 
89.137   1.38000000e+02 
89.101   9.50000000e+01 
89.065   1.11000000e+02 
89.029   1.20000000e+02 
88.993   1.20000000e+02 
88.957   1.13000000e+02 
88.921   1.10000000e+02 
88.885   1.17000000e+02 
88.849   1.03000000e+02 
88.813   1.03000000e+02 
88.777   1.16000000e+02 
88.741   1.19000000e+02 
88.705   1.13000000e+02 
88.670   9.10000000e+01 
88.634   1.03000000e+02 
88.598   1.07000000e+02 
88.562   1.35000000e+02 
88.526   9.50000000e+01 
88.490   9.90000000e+01 
88.454   1.10000000e+02 
88.418   1.15000000e+02 
88.382   8.60000000e+01 
88.346   1.21000000e+02 
88.310   1.33000000e+02 
88.274   1.21000000e+02 
88.238   1.18000000e+02 
88.202   1.01000000e+02 
88.166   1.17000000e+02 
88.130   1.15000000e+02 
88.095   1.01000000e+02 
88.059   1.18000000e+02 
88.023   1.08000000e+02 

