EXPERIMENT FILE
Version = 2

[ Experiment Parameters ]
Experiment Description= <none> 
Number_of_Regions_in_Experiment= 1 

Original_File_name= C:\alexesca\data\12202112_Au _4f_50deg_800W.xps 
Instrument= HP ESCA West
Date= 12-21-2012
Time=  14:28:11

[ Layer Parameters ]
Layer_Type= XPS

[ Region 1 Parameters ]
Region_Description = Au 4f Dithered Scan                
BEcenter(eV) = 93.000000
BEwidth(eV) = 10.000000
BEstep(eV) = 0.035937
Dwell_Time(sec) = 1.000000
N_o_scans = 1  
N_o_Channels = 278  
Scan_mode = 0  (DITHERED)

[ L= 1 R= 1 ]
BEcenter= 93.000  
BEwidth= -9.955  
Excitation= 1486.600
Time_p_channel= 256.000 
Size= 278
97.977   8.16000000e+02 
97.941   7.77000000e+02 
97.905   7.95000000e+02 
97.870   7.53000000e+02 
97.834   7.71000000e+02 
97.798   7.60000000e+02 
97.762   7.83000000e+02 
97.726   7.98000000e+02 
97.690   7.71000000e+02 
97.654   8.31000000e+02 
97.618   7.78000000e+02 
97.582   8.04000000e+02 
97.546   7.70000000e+02 
97.510   8.43000000e+02 
97.474   8.05000000e+02 
97.438   7.77000000e+02 
97.402   7.50000000e+02 
97.366   8.13000000e+02 
97.330   8.41000000e+02 
97.295   8.33000000e+02 
97.259   8.53000000e+02 
97.223   8.08000000e+02 
97.187   7.67000000e+02 
97.151   8.58000000e+02 
97.115   7.95000000e+02 
97.079   8.31000000e+02 
97.043   8.36000000e+02 
97.007   8.09000000e+02 
96.971   8.28000000e+02 
96.935   8.53000000e+02 
96.899   8.59000000e+02 
96.863   8.62000000e+02 
96.827   8.27000000e+02 
96.791   8.72000000e+02 
96.755   8.63000000e+02 
96.720   8.93000000e+02 
96.684   9.29000000e+02 
96.648   8.65000000e+02 
96.612   8.62000000e+02 
96.576   8.49000000e+02 
96.540   8.99000000e+02 
96.504   8.90000000e+02 
96.468   9.34000000e+02 
96.432   9.02000000e+02 
96.396   9.09000000e+02 
96.360   9.55000000e+02 
96.324   9.32000000e+02 
96.288   9.32000000e+02 
96.252   9.41000000e+02 
96.216   9.69000000e+02 
96.180   1.02800000e+03 
96.145   1.01800000e+03 
96.109   1.03400000e+03 
96.073   1.06700000e+03 
96.037   1.04600000e+03 
96.001   1.08600000e+03 
95.965   1.10300000e+03 
95.929   1.14000000e+03 
95.893   1.12200000e+03 
95.857   1.15000000e+03 
95.821   1.20100000e+03 
95.785   1.22400000e+03 
95.749   1.27500000e+03 
95.713   1.23200000e+03 
95.677   1.30300000e+03 
95.641   1.23800000e+03 
95.605   1.37600000e+03 
95.570   1.43100000e+03 
95.534   1.49900000e+03 
95.498   1.49300000e+03 
95.462   1.55100000e+03 
95.426   1.59300000e+03 
95.390   1.59300000e+03 
95.354   1.67200000e+03 
95.318   1.74700000e+03 
95.282   1.80900000e+03 
95.246   1.94100000e+03 
95.210   1.92400000e+03 
95.174   2.10000000e+03 
95.138   2.10000000e+03 
95.102   2.12600000e+03 
95.066   2.24400000e+03 
95.030   2.30200000e+03 
94.995   2.34400000e+03 
94.959   2.47500000e+03 
94.923   2.56800000e+03 
94.887   2.60900000e+03 
94.851   2.75900000e+03 
94.815   2.83200000e+03 
94.779   2.98500000e+03 
94.743   3.05300000e+03 
94.707   3.04400000e+03 
94.671   3.22800000e+03 
94.635   3.36400000e+03 
94.599   3.55400000e+03 
94.563   3.48200000e+03 
94.527   3.54100000e+03 
94.491   3.78100000e+03 
94.455   3.80100000e+03 
94.420   3.92300000e+03 
94.384   4.08700000e+03 
94.348   4.03100000e+03 
94.312   4.36200000e+03 
94.276   4.26100000e+03 
94.240   4.44200000e+03 
94.204   4.32100000e+03 
94.168   4.51700000e+03 
94.132   4.50200000e+03 
94.096   4.48100000e+03 
94.060   4.44700000e+03 
94.024   4.55000000e+03 
93.988   4.49900000e+03 
93.952   4.46400000e+03 
93.916   4.30200000e+03 
93.880   4.16300000e+03 
93.845   3.90200000e+03 
93.809   3.82800000e+03 
93.773   3.58800000e+03 
93.737   3.44200000e+03 
93.701   3.28200000e+03 
93.665   3.13800000e+03 
93.629   2.89600000e+03 
93.593   2.66300000e+03 
93.557   2.43500000e+03 
93.521   2.33200000e+03 
93.485   2.06700000e+03 
93.449   2.03700000e+03 
93.413   1.82200000e+03 
93.377   1.74700000e+03 
93.341   1.64800000e+03 
93.305   1.51200000e+03 
93.270   1.46200000e+03 
93.234   1.36200000e+03 
93.198   1.34700000e+03 
93.162   1.27000000e+03 
93.126   1.23300000e+03 
93.090   1.23700000e+03 
93.054   1.15700000e+03 
93.018   1.13100000e+03 
92.982   9.70000000e+02 
92.946   1.02500000e+03 
92.910   9.97000000e+02 
92.874   9.86000000e+02 
92.838   9.98000000e+02 
92.802   9.53000000e+02 
92.766   9.34000000e+02 
92.730   9.95000000e+02 
92.695   9.24000000e+02 
92.659   9.83000000e+02 
92.623   9.60000000e+02 
92.587   9.77000000e+02 
92.551   1.00000000e+03 
92.515   9.39000000e+02 
92.479   1.05400000e+03 
92.443   1.01000000e+03 
92.407   9.68000000e+02 
92.371   1.07500000e+03 
92.335   1.01300000e+03 
92.299   1.04700000e+03 
92.263   1.08500000e+03 
92.227   1.14000000e+03 
92.191   1.14700000e+03 
92.155   1.11200000e+03 
92.120   1.17300000e+03 
92.084   1.23800000e+03 
92.048   1.17100000e+03 
92.012   1.25600000e+03 
91.976   1.28200000e+03 
91.940   1.38300000e+03 
91.904   1.38500000e+03 
91.868   1.46100000e+03 
91.832   1.44500000e+03 
91.796   1.50500000e+03 
91.760   1.56400000e+03 
91.724   1.68100000e+03 
91.688   1.77100000e+03 
91.652   1.75800000e+03 
91.616   1.92800000e+03 
91.580   2.01600000e+03 
91.545   2.00900000e+03 
91.509   2.04000000e+03 
91.473   2.23400000e+03 
91.437   2.30900000e+03 
91.401   2.40200000e+03 
91.365   2.43700000e+03 
91.329   2.54900000e+03 
91.293   2.66000000e+03 
91.257   2.85700000e+03 
91.221   2.87200000e+03 
91.185   3.04900000e+03 
91.149   3.08100000e+03 
91.113   3.29100000e+03 
91.077   3.23100000e+03 
91.041   3.51500000e+03 
91.005   3.63800000e+03 
90.970   3.67200000e+03 
90.934   3.88300000e+03 
90.898   4.00100000e+03 
90.862   4.00500000e+03 
90.826   4.21800000e+03 
90.790   4.35100000e+03 
90.754   4.50600000e+03 
90.718   4.62100000e+03 
90.682   4.72700000e+03 
90.646   4.78700000e+03 
90.610   4.92800000e+03 
90.574   4.97400000e+03 
90.538   5.15700000e+03 
90.502   5.23400000e+03 
90.466   5.31900000e+03 
90.430   5.17800000e+03 
90.395   5.28900000e+03 
90.359   5.28100000e+03 
90.323   5.19000000e+03 
90.287   5.13100000e+03 
90.251   4.98600000e+03 
90.215   4.77600000e+03 
90.179   4.81900000e+03 
90.143   4.52300000e+03 
90.107   4.28800000e+03 
90.071   4.09600000e+03 
90.035   3.91700000e+03 
89.999   3.70100000e+03 
89.963   3.38000000e+03 
89.927   3.17000000e+03 
89.891   2.91100000e+03 
89.855   2.70000000e+03 
89.820   2.44400000e+03 
89.784   2.27100000e+03 
89.748   2.01000000e+03 
89.712   1.87100000e+03 
89.676   1.64700000e+03 
89.640   1.53600000e+03 
89.604   1.41200000e+03 
89.568   1.30700000e+03 
89.532   1.19200000e+03 
89.496   1.08100000e+03 
89.460   9.75000000e+02 
89.424   9.69000000e+02 
89.388   9.32000000e+02 
89.352   8.31000000e+02 
89.316   7.40000000e+02 
89.280   7.07000000e+02 
89.245   6.66000000e+02 
89.209   6.62000000e+02 
89.173   6.50000000e+02 
89.137   5.89000000e+02 
89.101   5.85000000e+02 
89.065   5.90000000e+02 
89.029   5.25000000e+02 
88.993   5.18000000e+02 
88.957   4.79000000e+02 
88.921   4.76000000e+02 
88.885   4.95000000e+02 
88.849   4.47000000e+02 
88.813   4.33000000e+02 
88.777   4.84000000e+02 
88.741   4.31000000e+02 
88.705   4.35000000e+02 
88.670   4.29000000e+02 
88.634   3.97000000e+02 
88.598   4.46000000e+02 
88.562   4.18000000e+02 
88.526   4.25000000e+02 
88.490   4.22000000e+02 
88.454   3.72000000e+02 
88.418   4.34000000e+02 
88.382   4.25000000e+02 
88.346   4.12000000e+02 
88.310   3.76000000e+02 
88.274   3.63000000e+02 
88.238   3.65000000e+02 
88.202   3.31000000e+02 
88.166   3.10000000e+02 
88.130   3.57000000e+02 
88.095   3.49000000e+02 
88.059   3.72000000e+02 
88.023   3.41000000e+02 

