EXPERIMENT FILE
Version = 2

[ Experiment Parameters ]
Experiment Description= <none> 
Number_of_Regions_in_Experiment= 1 

Original_File_name= C:\alexesca\data\12202112_Au _4f_70deg_800W.xps 
Instrument= HP ESCA West
Date= 12-21-2012
Time=  14:45:38

[ Layer Parameters ]
Layer_Type= XPS

[ Region 1 Parameters ]
Region_Description = Au 4f Dithered Scan                
BEcenter(eV) = 93.000000
BEwidth(eV) = 10.000000
BEstep(eV) = 0.035937
Dwell_Time(sec) = 1.000000
N_o_scans = 1  
N_o_Channels = 278  
Scan_mode = 0  (DITHERED)

[ L= 1 R= 1 ]
BEcenter= 93.000  
BEwidth= -9.955  
Excitation= 1486.600
Time_p_channel= 256.000 
Size= 278
97.977   1.21700000e+03 
97.941   1.20200000e+03 
97.905   1.22300000e+03 
97.870   1.16800000e+03 
97.834   1.20100000e+03 
97.798   1.21300000e+03 
97.762   1.21800000e+03 
97.726   1.19700000e+03 
97.690   1.18600000e+03 
97.654   1.24500000e+03 
97.618   1.27900000e+03 
97.582   1.23900000e+03 
97.546   1.26100000e+03 
97.510   1.19300000e+03 
97.474   1.23100000e+03 
97.438   1.30300000e+03 
97.402   1.28200000e+03 
97.366   1.26400000e+03 
97.330   1.28700000e+03 
97.295   1.29200000e+03 
97.259   1.24900000e+03 
97.223   1.20000000e+03 
97.187   1.34100000e+03 
97.151   1.26700000e+03 
97.115   1.31600000e+03 
97.079   1.25400000e+03 
97.043   1.28700000e+03 
97.007   1.29900000e+03 
96.971   1.34800000e+03 
96.935   1.37000000e+03 
96.899   1.29000000e+03 
96.863   1.32300000e+03 
96.827   1.32700000e+03 
96.791   1.32200000e+03 
96.755   1.36700000e+03 
96.720   1.39600000e+03 
96.684   1.29200000e+03 
96.648   1.46300000e+03 
96.612   1.39700000e+03 
96.576   1.41600000e+03 
96.540   1.47500000e+03 
96.504   1.44200000e+03 
96.468   1.47300000e+03 
96.432   1.54700000e+03 
96.396   1.48400000e+03 
96.360   1.50500000e+03 
96.324   1.55300000e+03 
96.288   1.61500000e+03 
96.252   1.54900000e+03 
96.216   1.52800000e+03 
96.180   1.63400000e+03 
96.145   1.67600000e+03 
96.109   1.77000000e+03 
96.073   1.67400000e+03 
96.037   1.78300000e+03 
96.001   1.80900000e+03 
95.965   1.82900000e+03 
95.929   1.87200000e+03 
95.893   1.93700000e+03 
95.857   2.02000000e+03 
95.821   2.08400000e+03 
95.785   2.11300000e+03 
95.749   2.14100000e+03 
95.713   2.27100000e+03 
95.677   2.28900000e+03 
95.641   2.32700000e+03 
95.605   2.43600000e+03 
95.570   2.50900000e+03 
95.534   2.58300000e+03 
95.498   2.72700000e+03 
95.462   2.72200000e+03 
95.426   2.77400000e+03 
95.390   2.86500000e+03 
95.354   2.98600000e+03 
95.318   3.14400000e+03 
95.282   3.17200000e+03 
95.246   3.37400000e+03 
95.210   3.40300000e+03 
95.174   3.48200000e+03 
95.138   3.59000000e+03 
95.102   3.74500000e+03 
95.066   3.90700000e+03 
95.030   3.99900000e+03 
94.995   4.15900000e+03 
94.959   4.23500000e+03 
94.923   4.24900000e+03 
94.887   4.32300000e+03 
94.851   4.40800000e+03 
94.815   4.65600000e+03 
94.779   4.74400000e+03 
94.743   4.83900000e+03 
94.707   5.03900000e+03 
94.671   5.00300000e+03 
94.635   5.23800000e+03 
94.599   5.27400000e+03 
94.563   5.43700000e+03 
94.527   5.34500000e+03 
94.491   5.50100000e+03 
94.455   5.66400000e+03 
94.420   5.73200000e+03 
94.384   5.83100000e+03 
94.348   5.93500000e+03 
94.312   5.83100000e+03 
94.276   6.02300000e+03 
94.240   5.98100000e+03 
94.204   6.00600000e+03 
94.168   6.10800000e+03 
94.132   6.04900000e+03 
94.096   6.03300000e+03 
94.060   5.98400000e+03 
94.024   5.98600000e+03 
93.988   6.13200000e+03 
93.952   5.97300000e+03 
93.916   5.73800000e+03 
93.880   5.72400000e+03 
93.845   5.59900000e+03 
93.809   5.55700000e+03 
93.773   5.49100000e+03 
93.737   5.24600000e+03 
93.701   5.20500000e+03 
93.665   5.00700000e+03 
93.629   4.82800000e+03 
93.593   4.54700000e+03 
93.557   4.43100000e+03 
93.521   4.37100000e+03 
93.485   4.25300000e+03 
93.449   3.93500000e+03 
93.413   3.75600000e+03 
93.377   3.50500000e+03 
93.341   3.49000000e+03 
93.305   3.16800000e+03 
93.270   3.02000000e+03 
93.234   2.94900000e+03 
93.198   2.80500000e+03 
93.162   2.63100000e+03 
93.126   2.49900000e+03 
93.090   2.36300000e+03 
93.054   2.24700000e+03 
93.018   2.13400000e+03 
92.982   2.13700000e+03 
92.946   1.95600000e+03 
92.910   1.94800000e+03 
92.874   1.84600000e+03 
92.838   1.83200000e+03 
92.802   1.80700000e+03 
92.766   1.71700000e+03 
92.730   1.71000000e+03 
92.695   1.62200000e+03 
92.659   1.69500000e+03 
92.623   1.68500000e+03 
92.587   1.68900000e+03 
92.551   1.70500000e+03 
92.515   1.77300000e+03 
92.479   1.76400000e+03 
92.443   1.74000000e+03 
92.407   1.76300000e+03 
92.371   1.83400000e+03 
92.335   1.77800000e+03 
92.299   1.89100000e+03 
92.263   1.93200000e+03 
92.227   2.00200000e+03 
92.191   2.06700000e+03 
92.155   2.15900000e+03 
92.120   2.04800000e+03 
92.084   2.24100000e+03 
92.048   2.25800000e+03 
92.012   2.30500000e+03 
91.976   2.56200000e+03 
91.940   2.43200000e+03 
91.904   2.58500000e+03 
91.868   2.76300000e+03 
91.832   2.79000000e+03 
91.796   2.88800000e+03 
91.760   2.91400000e+03 
91.724   3.14200000e+03 
91.688   3.10000000e+03 
91.652   3.44100000e+03 
91.616   3.34600000e+03 
91.580   3.50400000e+03 
91.545   3.68800000e+03 
91.509   3.77400000e+03 
91.473   3.96900000e+03 
91.437   4.13400000e+03 
91.401   4.14300000e+03 
91.365   4.28000000e+03 
91.329   4.59100000e+03 
91.293   4.55300000e+03 
91.257   4.74100000e+03 
91.221   4.83300000e+03 
91.185   5.09700000e+03 
91.149   5.12000000e+03 
91.113   5.26200000e+03 
91.077   5.51700000e+03 
91.041   5.73400000e+03 
91.005   5.81200000e+03 
90.970   5.79800000e+03 
90.934   6.06300000e+03 
90.898   6.32300000e+03 
90.862   6.25000000e+03 
90.826   6.46400000e+03 
90.790   6.33600000e+03 
90.754   6.54700000e+03 
90.718   6.53400000e+03 
90.682   6.79200000e+03 
90.646   6.68400000e+03 
90.610   6.94400000e+03 
90.574   7.01200000e+03 
90.538   7.13200000e+03 
90.502   6.98400000e+03 
90.466   7.13200000e+03 
90.430   6.99700000e+03 
90.395   6.99900000e+03 
90.359   7.12300000e+03 
90.323   7.22600000e+03 
90.287   6.99000000e+03 
90.251   6.91300000e+03 
90.215   6.74600000e+03 
90.179   6.67200000e+03 
90.143   6.33400000e+03 
90.107   6.43600000e+03 
90.071   6.21100000e+03 
90.035   6.23900000e+03 
89.999   5.89200000e+03 
89.963   5.73100000e+03 
89.927   5.46500000e+03 
89.891   5.22900000e+03 
89.855   5.07000000e+03 
89.820   4.71200000e+03 
89.784   4.39800000e+03 
89.748   4.12300000e+03 
89.712   3.81700000e+03 
89.676   3.72300000e+03 
89.640   3.37400000e+03 
89.604   3.15300000e+03 
89.568   2.85200000e+03 
89.532   2.59800000e+03 
89.496   2.44600000e+03 
89.460   2.21700000e+03 
89.424   2.13400000e+03 
89.388   1.91600000e+03 
89.352   1.76500000e+03 
89.316   1.58100000e+03 
89.280   1.54200000e+03 
89.245   1.39000000e+03 
89.209   1.35200000e+03 
89.173   1.20400000e+03 
89.137   1.11300000e+03 
89.101   1.04700000e+03 
89.065   9.41000000e+02 
89.029   9.69000000e+02 
88.993   9.23000000e+02 
88.957   8.13000000e+02 
88.921   8.05000000e+02 
88.885   7.95000000e+02 
88.849   8.16000000e+02 
88.813   7.35000000e+02 
88.777   7.34000000e+02 
88.741   7.13000000e+02 
88.705   7.55000000e+02 
88.670   6.80000000e+02 
88.634   6.85000000e+02 
88.598   6.82000000e+02 
88.562   6.70000000e+02 
88.526   6.22000000e+02 
88.490   6.06000000e+02 
88.454   6.21000000e+02 
88.418   6.01000000e+02 
88.382   6.66000000e+02 
88.346   5.78000000e+02 
88.310   5.94000000e+02 
88.274   5.57000000e+02 
88.238   6.08000000e+02 
88.202   5.75000000e+02 
88.166   5.57000000e+02 
88.130   5.39000000e+02 
88.095   5.49000000e+02 
88.059   5.45000000e+02 
88.023   5.20000000e+02 

