EXPERIMENT FILE
Version = 2

[ Experiment Parameters ]
Experiment Description= <none> 
Number_of_Regions_in_Experiment= 1 

Original_File_name= C:\alexesca\data\12202112_Au _4f_30deg_800W.xps 
Instrument= HP ESCA West
Date= 12-21-2012
Time=  13:59:20

[ Layer Parameters ]
Layer_Type= XPS

[ Region 1 Parameters ]
Region_Description = Au 4f Dithered Scan                
BEcenter(eV) = 93.000000
BEwidth(eV) = 10.000000
BEstep(eV) = 0.035937
Dwell_Time(sec) = 1.000000
N_o_scans = 1  
N_o_Channels = 278  
Scan_mode = 0  (DITHERED)

[ L= 1 R= 1 ]
BEcenter= 93.000  
BEwidth= -9.955  
Excitation= 1486.600
Time_p_channel= 256.000 
Size= 278
97.977   3.93000000e+02 
97.941   3.57000000e+02 
97.905   3.40000000e+02 
97.870   3.50000000e+02 
97.834   3.75000000e+02 
97.798   3.67000000e+02 
97.762   3.65000000e+02 
97.726   3.63000000e+02 
97.690   3.45000000e+02 
97.654   3.64000000e+02 
97.618   3.56000000e+02 
97.582   3.82000000e+02 
97.546   3.99000000e+02 
97.510   3.49000000e+02 
97.474   3.54000000e+02 
97.438   3.70000000e+02 
97.402   3.69000000e+02 
97.366   3.84000000e+02 
97.330   3.75000000e+02 
97.295   3.71000000e+02 
97.259   3.87000000e+02 
97.223   3.55000000e+02 
97.187   3.83000000e+02 
97.151   3.78000000e+02 
97.115   4.22000000e+02 
97.079   3.90000000e+02 
97.043   3.37000000e+02 
97.007   3.80000000e+02 
96.971   4.08000000e+02 
96.935   4.03000000e+02 
96.899   4.00000000e+02 
96.863   3.92000000e+02 
96.827   3.94000000e+02 
96.791   4.34000000e+02 
96.755   4.08000000e+02 
96.720   4.17000000e+02 
96.684   3.69000000e+02 
96.648   4.20000000e+02 
96.612   4.01000000e+02 
96.576   4.34000000e+02 
96.540   3.96000000e+02 
96.504   4.42000000e+02 
96.468   3.90000000e+02 
96.432   3.82000000e+02 
96.396   4.18000000e+02 
96.360   3.67000000e+02 
96.324   4.14000000e+02 
96.288   4.05000000e+02 
96.252   4.04000000e+02 
96.216   4.26000000e+02 
96.180   4.26000000e+02 
96.145   4.51000000e+02 
96.109   4.30000000e+02 
96.073   4.24000000e+02 
96.037   4.43000000e+02 
96.001   4.27000000e+02 
95.965   4.68000000e+02 
95.929   4.81000000e+02 
95.893   4.44000000e+02 
95.857   4.67000000e+02 
95.821   4.65000000e+02 
95.785   4.87000000e+02 
95.749   5.23000000e+02 
95.713   4.92000000e+02 
95.677   5.25000000e+02 
95.641   5.30000000e+02 
95.605   5.68000000e+02 
95.570   5.54000000e+02 
95.534   5.28000000e+02 
95.498   5.69000000e+02 
95.462   5.66000000e+02 
95.426   6.47000000e+02 
95.390   6.63000000e+02 
95.354   6.40000000e+02 
95.318   6.78000000e+02 
95.282   6.88000000e+02 
95.246   6.97000000e+02 
95.210   7.41000000e+02 
95.174   7.92000000e+02 
95.138   8.32000000e+02 
95.102   8.00000000e+02 
95.066   8.62000000e+02 
95.030   9.05000000e+02 
94.995   9.38000000e+02 
94.959   9.80000000e+02 
94.923   9.61000000e+02 
94.887   1.03200000e+03 
94.851   1.07000000e+03 
94.815   1.18100000e+03 
94.779   1.23800000e+03 
94.743   1.26900000e+03 
94.707   1.25600000e+03 
94.671   1.31400000e+03 
94.635   1.43200000e+03 
94.599   1.46600000e+03 
94.563   1.51200000e+03 
94.527   1.58200000e+03 
94.491   1.71700000e+03 
94.455   1.72200000e+03 
94.420   1.80600000e+03 
94.384   1.76400000e+03 
94.348   1.78500000e+03 
94.312   1.83100000e+03 
94.276   2.02500000e+03 
94.240   2.06100000e+03 
94.204   2.03200000e+03 
94.168   1.98200000e+03 
94.132   2.04700000e+03 
94.096   2.11000000e+03 
94.060   2.14000000e+03 
94.024   2.08100000e+03 
93.988   2.11200000e+03 
93.952   2.05800000e+03 
93.916   2.04800000e+03 
93.880   1.83100000e+03 
93.845   1.88900000e+03 
93.809   1.72300000e+03 
93.773   1.76700000e+03 
93.737   1.51300000e+03 
93.701   1.46200000e+03 
93.665   1.36700000e+03 
93.629   1.25700000e+03 
93.593   1.21700000e+03 
93.557   1.10300000e+03 
93.521   1.02300000e+03 
93.485   9.25000000e+02 
93.449   9.06000000e+02 
93.413   8.24000000e+02 
93.377   7.76000000e+02 
93.341   7.37000000e+02 
93.305   6.59000000e+02 
93.270   5.79000000e+02 
93.234   5.65000000e+02 
93.198   5.76000000e+02 
93.162   5.64000000e+02 
93.126   4.89000000e+02 
93.090   4.83000000e+02 
93.054   4.30000000e+02 
93.018   4.54000000e+02 
92.982   4.31000000e+02 
92.946   4.60000000e+02 
92.910   4.33000000e+02 
92.874   4.78000000e+02 
92.838   4.24000000e+02 
92.802   3.80000000e+02 
92.766   4.34000000e+02 
92.730   3.91000000e+02 
92.695   4.22000000e+02 
92.659   4.21000000e+02 
92.623   3.79000000e+02 
92.587   3.73000000e+02 
92.551   4.36000000e+02 
92.515   4.13000000e+02 
92.479   4.05000000e+02 
92.443   3.97000000e+02 
92.407   3.81000000e+02 
92.371   4.37000000e+02 
92.335   4.03000000e+02 
92.299   4.43000000e+02 
92.263   4.18000000e+02 
92.227   3.95000000e+02 
92.191   4.66000000e+02 
92.155   4.54000000e+02 
92.120   4.44000000e+02 
92.084   4.75000000e+02 
92.048   4.79000000e+02 
92.012   4.54000000e+02 
91.976   4.78000000e+02 
91.940   4.79000000e+02 
91.904   4.91000000e+02 
91.868   5.36000000e+02 
91.832   4.96000000e+02 
91.796   5.37000000e+02 
91.760   5.31000000e+02 
91.724   5.92000000e+02 
91.688   6.36000000e+02 
91.652   6.47000000e+02 
91.616   6.48000000e+02 
91.580   7.34000000e+02 
91.545   7.55000000e+02 
91.509   7.34000000e+02 
91.473   7.79000000e+02 
91.437   8.02000000e+02 
91.401   8.19000000e+02 
91.365   9.23000000e+02 
91.329   9.75000000e+02 
91.293   9.25000000e+02 
91.257   1.08300000e+03 
91.221   1.06800000e+03 
91.185   1.07100000e+03 
91.149   1.15800000e+03 
91.113   1.27000000e+03 
91.077   1.30800000e+03 
91.041   1.40700000e+03 
91.005   1.40700000e+03 
90.970   1.50800000e+03 
90.934   1.54800000e+03 
90.898   1.61600000e+03 
90.862   1.75600000e+03 
90.826   1.85100000e+03 
90.790   1.84900000e+03 
90.754   1.87800000e+03 
90.718   1.99900000e+03 
90.682   2.03800000e+03 
90.646   2.16800000e+03 
90.610   2.24700000e+03 
90.574   2.23400000e+03 
90.538   2.40000000e+03 
90.502   2.47500000e+03 
90.466   2.49200000e+03 
90.430   2.44900000e+03 
90.395   2.59100000e+03 
90.359   2.52900000e+03 
90.323   2.55300000e+03 
90.287   2.50100000e+03 
90.251   2.55300000e+03 
90.215   2.37300000e+03 
90.179   2.39000000e+03 
90.143   2.39200000e+03 
90.107   2.25700000e+03 
90.071   2.08700000e+03 
90.035   1.95000000e+03 
89.999   1.89900000e+03 
89.963   1.74400000e+03 
89.927   1.62900000e+03 
89.891   1.50700000e+03 
89.855   1.44200000e+03 
89.820   1.31900000e+03 
89.784   1.15300000e+03 
89.748   1.10100000e+03 
89.712   9.02000000e+02 
89.676   8.74000000e+02 
89.640   7.89000000e+02 
89.604   6.79000000e+02 
89.568   6.26000000e+02 
89.532   5.82000000e+02 
89.496   5.56000000e+02 
89.460   4.97000000e+02 
89.424   4.09000000e+02 
89.388   4.27000000e+02 
89.352   3.78000000e+02 
89.316   4.11000000e+02 
89.280   3.04000000e+02 
89.245   3.39000000e+02 
89.209   3.03000000e+02 
89.173   3.22000000e+02 
89.137   2.77000000e+02 
89.101   2.76000000e+02 
89.065   3.19000000e+02 
89.029   2.79000000e+02 
88.993   2.42000000e+02 
88.957   2.43000000e+02 
88.921   2.38000000e+02 
88.885   2.15000000e+02 
88.849   2.12000000e+02 
88.813   2.18000000e+02 
88.777   2.11000000e+02 
88.741   2.01000000e+02 
88.705   2.16000000e+02 
88.670   2.05000000e+02 
88.634   1.84000000e+02 
88.598   2.00000000e+02 
88.562   2.44000000e+02 
88.526   1.89000000e+02 
88.490   2.10000000e+02 
88.454   2.17000000e+02 
88.418   1.95000000e+02 
88.382   1.68000000e+02 
88.346   2.02000000e+02 
88.310   1.91000000e+02 
88.274   1.81000000e+02 
88.238   1.62000000e+02 
88.202   1.98000000e+02 
88.166   1.87000000e+02 
88.130   1.59000000e+02 
88.095   1.72000000e+02 
88.059   1.72000000e+02 
88.023   1.88000000e+02 

