EXPERIMENT FILE
Version = 2

[ Experiment Parameters ]
Experiment Description= <none> 
Number_of_Regions_in_Experiment= 1 

Original_File_name= C:\alexesca\data\12202112_Au _4f_950deg_800W.xps 
Instrument= HP ESCA West
Date= 12-21-2012
Time=  14:59:20

[ Layer Parameters ]
Layer_Type= XPS

[ Region 1 Parameters ]
Region_Description = Au 4f Dithered Scan                
BEcenter(eV) = 93.000000
BEwidth(eV) = 10.000000
BEstep(eV) = 0.035937
Dwell_Time(sec) = 1.000000
N_o_scans = 1  
N_o_Channels = 278  
Scan_mode = 0  (DITHERED)

[ L= 1 R= 1 ]
BEcenter= 93.000  
BEwidth= -9.955  
Excitation= 1486.600
Time_p_channel= 256.000 
Size= 278
97.977   1.43600000e+03 
97.941   1.45800000e+03 
97.905   1.46700000e+03 
97.870   1.51500000e+03 
97.834   1.43100000e+03 
97.798   1.46300000e+03 
97.762   1.47100000e+03 
97.726   1.44700000e+03 
97.690   1.46200000e+03 
97.654   1.43900000e+03 
97.618   1.47800000e+03 
97.582   1.46800000e+03 
97.546   1.47100000e+03 
97.510   1.45100000e+03 
97.474   1.57800000e+03 
97.438   1.50500000e+03 
97.402   1.51900000e+03 
97.366   1.42600000e+03 
97.330   1.48000000e+03 
97.295   1.58100000e+03 
97.259   1.53800000e+03 
97.223   1.53300000e+03 
97.187   1.60000000e+03 
97.151   1.47300000e+03 
97.115   1.52800000e+03 
97.079   1.57200000e+03 
97.043   1.56800000e+03 
97.007   1.56300000e+03 
96.971   1.57700000e+03 
96.935   1.57500000e+03 
96.899   1.52600000e+03 
96.863   1.67200000e+03 
96.827   1.57500000e+03 
96.791   1.58700000e+03 
96.755   1.71300000e+03 
96.720   1.68600000e+03 
96.684   1.62900000e+03 
96.648   1.72700000e+03 
96.612   1.74300000e+03 
96.576   1.79100000e+03 
96.540   1.81200000e+03 
96.504   1.70600000e+03 
96.468   1.80500000e+03 
96.432   1.83400000e+03 
96.396   1.86200000e+03 
96.360   1.96700000e+03 
96.324   1.88600000e+03 
96.288   1.96400000e+03 
96.252   2.07600000e+03 
96.216   2.11300000e+03 
96.180   2.10200000e+03 
96.145   2.23400000e+03 
96.109   2.19500000e+03 
96.073   2.26200000e+03 
96.037   2.30600000e+03 
96.001   2.43000000e+03 
95.965   2.43700000e+03 
95.929   2.57100000e+03 
95.893   2.55700000e+03 
95.857   2.72800000e+03 
95.821   2.78600000e+03 
95.785   2.80500000e+03 
95.749   2.89600000e+03 
95.713   2.94600000e+03 
95.677   3.05000000e+03 
95.641   3.19100000e+03 
95.605   3.26500000e+03 
95.570   3.29900000e+03 
95.534   3.44400000e+03 
95.498   3.51900000e+03 
95.462   3.66300000e+03 
95.426   3.75800000e+03 
95.390   3.93500000e+03 
95.354   4.02700000e+03 
95.318   4.13900000e+03 
95.282   4.30600000e+03 
95.246   4.37600000e+03 
95.210   4.35000000e+03 
95.174   4.39900000e+03 
95.138   4.68600000e+03 
95.102   4.75200000e+03 
95.066   4.99500000e+03 
95.030   5.24000000e+03 
94.995   5.06500000e+03 
94.959   5.16200000e+03 
94.923   5.48300000e+03 
94.887   5.59800000e+03 
94.851   5.71100000e+03 
94.815   5.71200000e+03 
94.779   5.75500000e+03 
94.743   5.72200000e+03 
94.707   5.99500000e+03 
94.671   5.91400000e+03 
94.635   6.19800000e+03 
94.599   6.09400000e+03 
94.563   6.30600000e+03 
94.527   6.22700000e+03 
94.491   6.35000000e+03 
94.455   6.25800000e+03 
94.420   6.56800000e+03 
94.384   6.49500000e+03 
94.348   6.59300000e+03 
94.312   6.57000000e+03 
94.276   6.60300000e+03 
94.240   6.64000000e+03 
94.204   6.60800000e+03 
94.168   6.68600000e+03 
94.132   6.66700000e+03 
94.096   6.50700000e+03 
94.060   6.76100000e+03 
94.024   6.54900000e+03 
93.988   6.43500000e+03 
93.952   6.37700000e+03 
93.916   6.54800000e+03 
93.880   6.47600000e+03 
93.845   6.27700000e+03 
93.809   6.31300000e+03 
93.773   6.24300000e+03 
93.737   6.07600000e+03 
93.701   6.00800000e+03 
93.665   5.90500000e+03 
93.629   5.58900000e+03 
93.593   5.50800000e+03 
93.557   5.27700000e+03 
93.521   5.14900000e+03 
93.485   5.06000000e+03 
93.449   4.87000000e+03 
93.413   4.65900000e+03 
93.377   4.41600000e+03 
93.341   4.29600000e+03 
93.305   4.20400000e+03 
93.270   3.87100000e+03 
93.234   3.74500000e+03 
93.198   3.70000000e+03 
93.162   3.51100000e+03 
93.126   3.33000000e+03 
93.090   3.20100000e+03 
93.054   3.07900000e+03 
93.018   2.85000000e+03 
92.982   2.68400000e+03 
92.946   2.56800000e+03 
92.910   2.49800000e+03 
92.874   2.52300000e+03 
92.838   2.37000000e+03 
92.802   2.35500000e+03 
92.766   2.17400000e+03 
92.730   2.34400000e+03 
92.695   2.34000000e+03 
92.659   2.27200000e+03 
92.623   2.33400000e+03 
92.587   2.27100000e+03 
92.551   2.39700000e+03 
92.515   2.42000000e+03 
92.479   2.40100000e+03 
92.443   2.52900000e+03 
92.407   2.51900000e+03 
92.371   2.58900000e+03 
92.335   2.73100000e+03 
92.299   2.77000000e+03 
92.263   2.80900000e+03 
92.227   2.88300000e+03 
92.191   3.00300000e+03 
92.155   3.11700000e+03 
92.120   3.30800000e+03 
92.084   3.32400000e+03 
92.048   3.52800000e+03 
92.012   3.55700000e+03 
91.976   3.67500000e+03 
91.940   3.84700000e+03 
91.904   4.05300000e+03 
91.868   4.04400000e+03 
91.832   4.25100000e+03 
91.796   4.44500000e+03 
91.760   4.52100000e+03 
91.724   4.71400000e+03 
91.688   4.89000000e+03 
91.652   4.97400000e+03 
91.616   5.06100000e+03 
91.580   5.19800000e+03 
91.545   5.25400000e+03 
91.509   5.51400000e+03 
91.473   5.71300000e+03 
91.437   5.77400000e+03 
91.401   5.96300000e+03 
91.365   6.27300000e+03 
91.329   6.38800000e+03 
91.293   6.42000000e+03 
91.257   6.47400000e+03 
91.221   6.65000000e+03 
91.185   6.82200000e+03 
91.149   7.02000000e+03 
91.113   7.13700000e+03 
91.077   7.10500000e+03 
91.041   7.29500000e+03 
91.005   7.20100000e+03 
90.970   7.47800000e+03 
90.934   7.51800000e+03 
90.898   7.58200000e+03 
90.862   7.59100000e+03 
90.826   7.62800000e+03 
90.790   7.73700000e+03 
90.754   7.80800000e+03 
90.718   7.79000000e+03 
90.682   7.69200000e+03 
90.646   7.74500000e+03 
90.610   7.83200000e+03 
90.574   7.91200000e+03 
90.538   7.83800000e+03 
90.502   7.61900000e+03 
90.466   7.65500000e+03 
90.430   7.71400000e+03 
90.395   7.55000000e+03 
90.359   7.46400000e+03 
90.323   7.36800000e+03 
90.287   7.25200000e+03 
90.251   7.28300000e+03 
90.215   7.12700000e+03 
90.179   6.94600000e+03 
90.143   6.77200000e+03 
90.107   6.63200000e+03 
90.071   6.47900000e+03 
90.035   6.33100000e+03 
89.999   6.12000000e+03 
89.963   5.76000000e+03 
89.927   5.62600000e+03 
89.891   5.32600000e+03 
89.855   5.12700000e+03 
89.820   4.87000000e+03 
89.784   4.72100000e+03 
89.748   4.40300000e+03 
89.712   4.05700000e+03 
89.676   3.90600000e+03 
89.640   3.61200000e+03 
89.604   3.35200000e+03 
89.568   3.23600000e+03 
89.532   2.92700000e+03 
89.496   2.73100000e+03 
89.460   2.49900000e+03 
89.424   2.28400000e+03 
89.388   2.10200000e+03 
89.352   1.88700000e+03 
89.316   1.82600000e+03 
89.280   1.66900000e+03 
89.245   1.60600000e+03 
89.209   1.48600000e+03 
89.173   1.42500000e+03 
89.137   1.25000000e+03 
89.101   1.13300000e+03 
89.065   1.11500000e+03 
89.029   1.04200000e+03 
88.993   1.01300000e+03 
88.957   9.50000000e+02 
88.921   9.86000000e+02 
88.885   9.36000000e+02 
88.849   9.14000000e+02 
88.813   8.92000000e+02 
88.777   8.14000000e+02 
88.741   7.61000000e+02 
88.705   7.89000000e+02 
88.670   8.04000000e+02 
88.634   7.64000000e+02 
88.598   8.02000000e+02 
88.562   7.23000000e+02 
88.526   7.62000000e+02 
88.490   6.83000000e+02 
88.454   7.37000000e+02 
88.418   7.37000000e+02 
88.382   7.23000000e+02 
88.346   6.76000000e+02 
88.310   6.42000000e+02 
88.274   6.71000000e+02 
88.238   6.75000000e+02 
88.202   6.80000000e+02 
88.166   6.42000000e+02 
88.130   6.73000000e+02 
88.095   6.59000000e+02 
88.059   7.07000000e+02 
88.023   6.22000000e+02 

