EXPERIMENT FILE
Version = 2

[ Experiment Parameters ]
Experiment Description= <none> 
Number_of_Regions_in_Experiment= 1 

Original_File_name= C:\alexesca\data\12202012_Au _4f_Power_Check_600W.xps 
Instrument= HP ESCA West
Date= 12-21-2012
Time=  12:32:14

[ Layer Parameters ]
Layer_Type= XPS

[ Region 1 Parameters ]
Region_Description = Au 4f Dithered Scan 2sec x2        
BEcenter(eV) = 93.000000
BEwidth(eV) = 10.000000
BEstep(eV) = 0.035937
Dwell_Time(sec) = 2.000000
N_o_scans = 2  
N_o_Channels = 278  
Scan_mode = 0  (DITHERED)

[ L= 1 R= 1 ]
BEcenter= 93.000  
BEwidth= -9.955  
Excitation= 1486.600
Time_p_channel= 1024.000
Size= 278
97.977   1.08600000e+03 
97.941   1.10400000e+03 
97.905   1.13500000e+03 
97.870   1.19400000e+03 
97.834   1.09900000e+03 
97.798   1.13500000e+03 
97.762   1.17500000e+03 
97.726   1.14500000e+03 
97.690   1.13800000e+03 
97.654   1.15300000e+03 
97.618   1.14100000e+03 
97.582   1.14200000e+03 
97.546   1.13800000e+03 
97.510   1.10700000e+03 
97.474   1.17300000e+03 
97.438   1.22800000e+03 
97.402   1.19400000e+03 
97.366   1.10600000e+03 
97.330   1.20400000e+03 
97.295   1.19800000e+03 
97.259   1.15100000e+03 
97.223   1.19900000e+03 
97.187   1.16900000e+03 
97.151   1.16600000e+03 
97.115   1.17700000e+03 
97.079   1.24800000e+03 
97.043   1.12800000e+03 
97.007   1.20600000e+03 
96.971   1.18100000e+03 
96.935   1.20500000e+03 
96.899   1.15400000e+03 
96.863   1.19900000e+03 
96.827   1.19400000e+03 
96.791   1.16200000e+03 
96.755   1.21400000e+03 
96.720   1.24800000e+03 
96.684   1.17400000e+03 
96.648   1.21100000e+03 
96.612   1.27000000e+03 
96.576   1.29300000e+03 
96.540   1.21400000e+03 
96.504   1.20000000e+03 
96.468   1.21900000e+03 
96.432   1.25600000e+03 
96.396   1.28500000e+03 
96.360   1.26900000e+03 
96.324   1.34500000e+03 
96.288   1.28500000e+03 
96.252   1.30400000e+03 
96.216   1.30500000e+03 
96.180   1.25700000e+03 
96.145   1.27900000e+03 
96.109   1.32500000e+03 
96.073   1.33200000e+03 
96.037   1.31300000e+03 
96.001   1.38600000e+03 
95.965   1.40800000e+03 
95.929   1.34600000e+03 
95.893   1.42800000e+03 
95.857   1.44600000e+03 
95.821   1.45000000e+03 
95.785   1.51800000e+03 
95.749   1.55600000e+03 
95.713   1.58500000e+03 
95.677   1.55700000e+03 
95.641   1.59700000e+03 
95.605   1.67700000e+03 
95.570   1.60000000e+03 
95.534   1.69500000e+03 
95.498   1.85200000e+03 
95.462   1.84500000e+03 
95.426   1.85700000e+03 
95.390   1.99100000e+03 
95.354   2.02100000e+03 
95.318   2.09600000e+03 
95.282   2.21700000e+03 
95.246   2.15900000e+03 
95.210   2.42200000e+03 
95.174   2.35600000e+03 
95.138   2.49300000e+03 
95.102   2.52700000e+03 
95.066   2.75800000e+03 
95.030   2.80800000e+03 
94.995   2.86900000e+03 
94.959   2.98800000e+03 
94.923   3.09300000e+03 
94.887   3.37600000e+03 
94.851   3.36800000e+03 
94.815   3.51600000e+03 
94.779   3.63400000e+03 
94.743   3.80900000e+03 
94.707   3.96900000e+03 
94.671   3.97200000e+03 
94.635   4.18600000e+03 
94.599   4.31800000e+03 
94.563   4.54500000e+03 
94.527   4.67300000e+03 
94.491   4.79700000e+03 
94.455   4.74600000e+03 
94.420   4.92200000e+03 
94.384   5.13700000e+03 
94.348   5.28400000e+03 
94.312   5.21800000e+03 
94.276   5.48700000e+03 
94.240   5.52900000e+03 
94.204   5.52600000e+03 
94.168   5.36200000e+03 
94.132   5.56700000e+03 
94.096   5.45600000e+03 
94.060   5.46700000e+03 
94.024   5.45700000e+03 
93.988   5.45300000e+03 
93.952   5.27600000e+03 
93.916   5.33900000e+03 
93.880   5.23700000e+03 
93.845   5.12100000e+03 
93.809   4.94500000e+03 
93.773   4.82300000e+03 
93.737   4.76100000e+03 
93.701   4.53700000e+03 
93.665   4.45900000e+03 
93.629   4.26100000e+03 
93.593   3.94100000e+03 
93.557   3.84300000e+03 
93.521   3.78100000e+03 
93.485   3.47900000e+03 
93.449   3.14500000e+03 
93.413   3.09300000e+03 
93.377   2.86300000e+03 
93.341   2.66800000e+03 
93.305   2.52200000e+03 
93.270   2.35500000e+03 
93.234   2.24500000e+03 
93.198   2.10800000e+03 
93.162   1.92700000e+03 
93.126   1.86000000e+03 
93.090   1.76900000e+03 
93.054   1.73600000e+03 
93.018   1.65800000e+03 
92.982   1.52400000e+03 
92.946   1.53300000e+03 
92.910   1.45400000e+03 
92.874   1.46700000e+03 
92.838   1.48000000e+03 
92.802   1.38100000e+03 
92.766   1.37500000e+03 
92.730   1.35100000e+03 
92.695   1.28600000e+03 
92.659   1.30500000e+03 
92.623   1.29600000e+03 
92.587   1.29700000e+03 
92.551   1.28900000e+03 
92.515   1.31800000e+03 
92.479   1.24900000e+03 
92.443   1.33100000e+03 
92.407   1.29600000e+03 
92.371   1.36500000e+03 
92.335   1.40800000e+03 
92.299   1.41300000e+03 
92.263   1.35400000e+03 
92.227   1.36100000e+03 
92.191   1.40800000e+03 
92.155   1.43800000e+03 
92.120   1.42300000e+03 
92.084   1.52500000e+03 
92.048   1.48800000e+03 
92.012   1.52400000e+03 
91.976   1.61600000e+03 
91.940   1.67200000e+03 
91.904   1.69700000e+03 
91.868   1.66500000e+03 
91.832   1.77600000e+03 
91.796   1.83400000e+03 
91.760   1.98900000e+03 
91.724   1.95100000e+03 
91.688   2.02800000e+03 
91.652   2.16700000e+03 
91.616   2.19900000e+03 
91.580   2.32300000e+03 
91.545   2.46300000e+03 
91.509   2.52100000e+03 
91.473   2.64500000e+03 
91.437   2.76400000e+03 
91.401   2.88100000e+03 
91.365   2.96300000e+03 
91.329   3.31500000e+03 
91.293   3.29100000e+03 
91.257   3.54000000e+03 
91.221   3.59500000e+03 
91.185   3.93800000e+03 
91.149   4.06300000e+03 
91.113   4.38800000e+03 
91.077   4.46900000e+03 
91.041   4.76000000e+03 
91.005   4.92900000e+03 
90.970   5.11400000e+03 
90.934   5.45500000e+03 
90.898   5.46500000e+03 
90.862   5.79900000e+03 
90.826   6.06300000e+03 
90.790   6.42400000e+03 
90.754   6.46400000e+03 
90.718   6.71500000e+03 
90.682   6.72000000e+03 
90.646   6.84600000e+03 
90.610   7.04300000e+03 
90.574   7.14400000e+03 
90.538   7.05800000e+03 
90.502   7.16100000e+03 
90.466   7.13100000e+03 
90.430   7.40800000e+03 
90.395   7.18000000e+03 
90.359   7.10200000e+03 
90.323   6.83100000e+03 
90.287   6.53900000e+03 
90.251   6.51800000e+03 
90.215   6.31000000e+03 
90.179   5.99800000e+03 
90.143   5.75500000e+03 
90.107   5.50100000e+03 
90.071   4.96700000e+03 
90.035   4.71600000e+03 
89.999   4.43800000e+03 
89.963   4.19100000e+03 
89.927   3.88900000e+03 
89.891   3.50700000e+03 
89.855   3.15200000e+03 
89.820   2.95800000e+03 
89.784   2.96200000e+03 
89.748   2.50900000e+03 
89.712   2.31400000e+03 
89.676   2.13000000e+03 
89.640   2.06100000e+03 
89.604   1.80700000e+03 
89.568   1.73800000e+03 
89.532   1.54200000e+03 
89.496   1.38800000e+03 
89.460   1.40600000e+03 
89.424   1.28000000e+03 
89.388   1.17400000e+03 
89.352   1.09500000e+03 
89.316   1.02300000e+03 
89.280   9.90000000e+02 
89.245   9.43000000e+02 
89.209   9.23000000e+02 
89.173   8.72000000e+02 
89.137   7.98000000e+02 
89.101   8.43000000e+02 
89.065   7.78000000e+02 
89.029   8.15000000e+02 
88.993   7.61000000e+02 
88.957   7.38000000e+02 
88.921   6.85000000e+02 
88.885   7.04000000e+02 
88.849   6.20000000e+02 
88.813   6.38000000e+02 
88.777   6.71000000e+02 
88.741   6.27000000e+02 
88.705   6.00000000e+02 
88.670   6.29000000e+02 
88.634   6.44000000e+02 
88.598   5.83000000e+02 
88.562   5.87000000e+02 
88.526   5.61000000e+02 
88.490   5.89000000e+02 
88.454   5.57000000e+02 
88.418   5.24000000e+02 
88.382   5.49000000e+02 
88.346   5.38000000e+02 
88.310   5.09000000e+02 
88.274   5.55000000e+02 
88.238   4.92000000e+02 
88.202   5.41000000e+02 
88.166   5.45000000e+02 
88.130   5.10000000e+02 
88.095   4.88000000e+02 
88.059   4.90000000e+02 
88.023   5.06000000e+02 

