EXPERIMENT FILE
Version = 2

[ Experiment Parameters ]
Experiment Description= <none> 
Number_of_Regions_in_Experiment= 1 

Original_File_name= C:\alexesca\data\12202012_Au _4f_Power_Check_400W.xps 
Instrument= HP ESCA West
Date= 12-20-2012
Time=  14:10:03

[ Layer Parameters ]
Layer_Type= XPS

[ Region 1 Parameters ]
Region_Description = Au 4f Dithered Scan 2sec x2        
BEcenter(eV) = 93.000000
BEwidth(eV) = 10.000000
BEstep(eV) = 0.035937
Dwell_Time(sec) = 2.000000
N_o_scans = 2  
N_o_Channels = 278  
Scan_mode = 0  (DITHERED)

[ L= 1 R= 1 ]
BEcenter= 93.000  
BEwidth= -9.955  
Excitation= 1486.600
Time_p_channel= 1024.000
Size= 278
97.977   6.59000000e+02 
97.941   7.38000000e+02 
97.905   6.80000000e+02 
97.870   6.93000000e+02 
97.834   6.80000000e+02 
97.798   6.76000000e+02 
97.762   6.73000000e+02 
97.726   6.84000000e+02 
97.690   6.87000000e+02 
97.654   6.96000000e+02 
97.618   7.21000000e+02 
97.582   7.69000000e+02 
97.546   7.30000000e+02 
97.510   7.35000000e+02 
97.474   7.49000000e+02 
97.438   7.53000000e+02 
97.402   7.47000000e+02 
97.366   7.16000000e+02 
97.330   7.18000000e+02 
97.295   7.37000000e+02 
97.259   7.34000000e+02 
97.223   7.50000000e+02 
97.187   7.86000000e+02 
97.151   7.36000000e+02 
97.115   7.43000000e+02 
97.079   7.24000000e+02 
97.043   7.90000000e+02 
97.007   7.39000000e+02 
96.971   7.26000000e+02 
96.935   7.16000000e+02 
96.899   7.11000000e+02 
96.863   7.58000000e+02 
96.827   7.15000000e+02 
96.791   7.86000000e+02 
96.755   8.22000000e+02 
96.720   7.93000000e+02 
96.684   7.50000000e+02 
96.648   7.79000000e+02 
96.612   7.92000000e+02 
96.576   7.46000000e+02 
96.540   7.48000000e+02 
96.504   8.27000000e+02 
96.468   7.97000000e+02 
96.432   7.70000000e+02 
96.396   7.48000000e+02 
96.360   8.21000000e+02 
96.324   7.57000000e+02 
96.288   8.16000000e+02 
96.252   8.45000000e+02 
96.216   7.73000000e+02 
96.180   8.14000000e+02 
96.145   8.07000000e+02 
96.109   7.78000000e+02 
96.073   7.76000000e+02 
96.037   8.04000000e+02 
96.001   8.22000000e+02 
95.965   8.49000000e+02 
95.929   8.38000000e+02 
95.893   8.18000000e+02 
95.857   8.31000000e+02 
95.821   8.65000000e+02 
95.785   9.20000000e+02 
95.749   8.51000000e+02 
95.713   8.25000000e+02 
95.677   9.00000000e+02 
95.641   8.80000000e+02 
95.605   8.72000000e+02 
95.570   9.13000000e+02 
95.534   9.18000000e+02 
95.498   9.06000000e+02 
95.462   9.19000000e+02 
95.426   9.61000000e+02 
95.390   9.83000000e+02 
95.354   1.06400000e+03 
95.318   1.05800000e+03 
95.282   1.05400000e+03 
95.246   1.08100000e+03 
95.210   1.10000000e+03 
95.174   1.09700000e+03 
95.138   1.11300000e+03 
95.102   1.23100000e+03 
95.066   1.20300000e+03 
95.030   1.26100000e+03 
94.995   1.33400000e+03 
94.959   1.37300000e+03 
94.923   1.39700000e+03 
94.887   1.35400000e+03 
94.851   1.44400000e+03 
94.815   1.49200000e+03 
94.779   1.61000000e+03 
94.743   1.68100000e+03 
94.707   1.76000000e+03 
94.671   1.84600000e+03 
94.635   1.81100000e+03 
94.599   1.96700000e+03 
94.563   1.95000000e+03 
94.527   2.09900000e+03 
94.491   2.31900000e+03 
94.455   2.28600000e+03 
94.420   2.44100000e+03 
94.384   2.52400000e+03 
94.348   2.58300000e+03 
94.312   2.74400000e+03 
94.276   2.92900000e+03 
94.240   2.85400000e+03 
94.204   3.07100000e+03 
94.168   3.23500000e+03 
94.132   3.27400000e+03 
94.096   3.53000000e+03 
94.060   3.62700000e+03 
94.024   3.55600000e+03 
93.988   3.66600000e+03 
93.952   3.90200000e+03 
93.916   4.07800000e+03 
93.880   4.03200000e+03 
93.845   4.13600000e+03 
93.809   4.08900000e+03 
93.773   4.27000000e+03 
93.737   4.28300000e+03 
93.701   4.23700000e+03 
93.665   4.27900000e+03 
93.629   4.11400000e+03 
93.593   3.91000000e+03 
93.557   4.02400000e+03 
93.521   3.93800000e+03 
93.485   3.62400000e+03 
93.449   3.40600000e+03 
93.413   3.24900000e+03 
93.377   3.01600000e+03 
93.341   2.93800000e+03 
93.305   2.57000000e+03 
93.270   2.44000000e+03 
93.234   2.26300000e+03 
93.198   2.08100000e+03 
93.162   1.91700000e+03 
93.126   1.71000000e+03 
93.090   1.65300000e+03 
93.054   1.52900000e+03 
93.018   1.33300000e+03 
92.982   1.29800000e+03 
92.946   1.22800000e+03 
92.910   1.15200000e+03 
92.874   1.09900000e+03 
92.838   1.09000000e+03 
92.802   9.91000000e+02 
92.766   1.12300000e+03 
92.730   1.00800000e+03 
92.695   9.35000000e+02 
92.659   9.24000000e+02 
92.623   8.99000000e+02 
92.587   8.97000000e+02 
92.551   8.84000000e+02 
92.515   8.95000000e+02 
92.479   8.40000000e+02 
92.443   8.79000000e+02 
92.407   8.39000000e+02 
92.371   8.12000000e+02 
92.335   8.31000000e+02 
92.299   7.96000000e+02 
92.263   8.02000000e+02 
92.227   8.23000000e+02 
92.191   8.10000000e+02 
92.155   8.37000000e+02 
92.120   8.42000000e+02 
92.084   8.10000000e+02 
92.048   8.57000000e+02 
92.012   8.63000000e+02 
91.976   8.36000000e+02 
91.940   8.04000000e+02 
91.904   8.35000000e+02 
91.868   8.51000000e+02 
91.832   8.95000000e+02 
91.796   9.02000000e+02 
91.760   9.20000000e+02 
91.724   9.97000000e+02 
91.688   9.99000000e+02 
91.652   9.82000000e+02 
91.616   9.46000000e+02 
91.580   1.05800000e+03 
91.545   1.01700000e+03 
91.509   1.12100000e+03 
91.473   1.13500000e+03 
91.437   1.13300000e+03 
91.401   1.25200000e+03 
91.365   1.25500000e+03 
91.329   1.26300000e+03 
91.293   1.35600000e+03 
91.257   1.43800000e+03 
91.221   1.54500000e+03 
91.185   1.59400000e+03 
91.149   1.57500000e+03 
91.113   1.68100000e+03 
91.077   1.81200000e+03 
91.041   1.89600000e+03 
91.005   1.84300000e+03 
90.970   2.06200000e+03 
90.934   2.22200000e+03 
90.898   2.31700000e+03 
90.862   2.42600000e+03 
90.826   2.46500000e+03 
90.790   2.63400000e+03 
90.754   2.78800000e+03 
90.718   2.89600000e+03 
90.682   3.02900000e+03 
90.646   3.22300000e+03 
90.610   3.33400000e+03 
90.574   3.42200000e+03 
90.538   3.55200000e+03 
90.502   3.74200000e+03 
90.466   3.93400000e+03 
90.430   4.00900000e+03 
90.395   4.32700000e+03 
90.359   4.34200000e+03 
90.323   4.52300000e+03 
90.287   4.66900000e+03 
90.251   4.75800000e+03 
90.215   4.97000000e+03 
90.179   5.06400000e+03 
90.143   5.07700000e+03 
90.107   5.00500000e+03 
90.071   5.28900000e+03 
90.035   5.16100000e+03 
89.999   5.11300000e+03 
89.963   5.21200000e+03 
89.927   4.86000000e+03 
89.891   4.75700000e+03 
89.855   4.64800000e+03 
89.820   4.34300000e+03 
89.784   4.03600000e+03 
89.748   3.70900000e+03 
89.712   3.41400000e+03 
89.676   3.14600000e+03 
89.640   2.87900000e+03 
89.604   2.62700000e+03 
89.568   2.45700000e+03 
89.532   2.10900000e+03 
89.496   1.97800000e+03 
89.460   1.69800000e+03 
89.424   1.54000000e+03 
89.388   1.42500000e+03 
89.352   1.29100000e+03 
89.316   1.21000000e+03 
89.280   1.12800000e+03 
89.245   9.63000000e+02 
89.209   8.79000000e+02 
89.173   8.47000000e+02 
89.137   7.91000000e+02 
89.101   7.29000000e+02 
89.065   7.23000000e+02 
89.029   7.00000000e+02 
88.993   6.35000000e+02 
88.957   6.05000000e+02 
88.921   6.39000000e+02 
88.885   5.28000000e+02 
88.849   5.63000000e+02 
88.813   5.52000000e+02 
88.777   4.89000000e+02 
88.741   4.81000000e+02 
88.705   4.66000000e+02 
88.670   4.66000000e+02 
88.634   4.71000000e+02 
88.598   4.52000000e+02 
88.562   4.30000000e+02 
88.526   4.07000000e+02 
88.490   4.20000000e+02 
88.454   4.14000000e+02 
88.418   4.32000000e+02 
88.382   4.12000000e+02 
88.346   4.04000000e+02 
88.310   3.76000000e+02 
88.274   4.04000000e+02 
88.238   3.69000000e+02 
88.202   3.78000000e+02 
88.166   3.78000000e+02 
88.130   3.45000000e+02 
88.095   3.87000000e+02 
88.059   3.81000000e+02 
88.023   3.46000000e+02 

