EXPERIMENT FILE
Version = 2

[ Experiment Parameters ]
Experiment Description= <none> 
Number_of_Regions_in_Experiment= 1 

Original_File_name= C:\alexesca\data\12202012_Au _4f_Power_Check_100W.xps 
Instrument= HP ESCA West
Date= 12-20-2012
Time=  12:45:10

[ Layer Parameters ]
Layer_Type= XPS

[ Region 1 Parameters ]
Region_Description = Au 4f Dithered Scan 2sec x2        
BEcenter(eV) = 93.000000
BEwidth(eV) = 10.000000
BEstep(eV) = 0.035937
Dwell_Time(sec) = 2.000000
N_o_scans = 2  
N_o_Channels = 278  
Scan_mode = 0  (DITHERED)

[ L= 1 R= 1 ]
BEcenter= 93.000  
BEwidth= -9.955  
Excitation= 1486.600
Time_p_channel= 1024.000
Size= 278
97.977   1.98000000e+02 
97.941   1.93000000e+02 
97.905   1.89000000e+02 
97.870   1.90000000e+02 
97.834   1.77000000e+02 
97.798   1.72000000e+02 
97.762   2.20000000e+02 
97.726   1.77000000e+02 
97.690   2.21000000e+02 
97.654   2.21000000e+02 
97.618   1.87000000e+02 
97.582   2.08000000e+02 
97.546   1.86000000e+02 
97.510   2.07000000e+02 
97.474   1.83000000e+02 
97.438   2.24000000e+02 
97.402   2.21000000e+02 
97.366   2.15000000e+02 
97.330   2.28000000e+02 
97.295   1.87000000e+02 
97.259   1.96000000e+02 
97.223   2.08000000e+02 
97.187   1.98000000e+02 
97.151   2.25000000e+02 
97.115   2.06000000e+02 
97.079   2.27000000e+02 
97.043   1.90000000e+02 
97.007   2.13000000e+02 
96.971   1.89000000e+02 
96.935   2.22000000e+02 
96.899   2.04000000e+02 
96.863   2.27000000e+02 
96.827   2.11000000e+02 
96.791   2.30000000e+02 
96.755   2.27000000e+02 
96.720   1.95000000e+02 
96.684   2.29000000e+02 
96.648   2.32000000e+02 
96.612   2.20000000e+02 
96.576   2.09000000e+02 
96.540   2.03000000e+02 
96.504   2.25000000e+02 
96.468   2.40000000e+02 
96.432   2.53000000e+02 
96.396   2.23000000e+02 
96.360   2.39000000e+02 
96.324   2.17000000e+02 
96.288   2.16000000e+02 
96.252   2.24000000e+02 
96.216   1.88000000e+02 
96.180   2.32000000e+02 
96.145   2.43000000e+02 
96.109   2.36000000e+02 
96.073   2.35000000e+02 
96.037   2.38000000e+02 
96.001   2.46000000e+02 
95.965   2.28000000e+02 
95.929   2.21000000e+02 
95.893   2.37000000e+02 
95.857   2.20000000e+02 
95.821   2.51000000e+02 
95.785   2.52000000e+02 
95.749   2.20000000e+02 
95.713   2.33000000e+02 
95.677   2.32000000e+02 
95.641   2.27000000e+02 
95.605   2.36000000e+02 
95.570   2.48000000e+02 
95.534   2.50000000e+02 
95.498   2.63000000e+02 
95.462   2.51000000e+02 
95.426   2.69000000e+02 
95.390   2.40000000e+02 
95.354   2.72000000e+02 
95.318   2.65000000e+02 
95.282   2.79000000e+02 
95.246   2.77000000e+02 
95.210   3.25000000e+02 
95.174   2.67000000e+02 
95.138   3.18000000e+02 
95.102   2.89000000e+02 
95.066   3.26000000e+02 
95.030   3.14000000e+02 
94.995   3.58000000e+02 
94.959   3.30000000e+02 
94.923   4.02000000e+02 
94.887   3.98000000e+02 
94.851   4.11000000e+02 
94.815   3.95000000e+02 
94.779   4.31000000e+02 
94.743   4.24000000e+02 
94.707   4.35000000e+02 
94.671   4.59000000e+02 
94.635   4.66000000e+02 
94.599   5.08000000e+02 
94.563   5.46000000e+02 
94.527   5.26000000e+02 
94.491   6.01000000e+02 
94.455   5.36000000e+02 
94.420   6.32000000e+02 
94.384   6.76000000e+02 
94.348   6.76000000e+02 
94.312   6.79000000e+02 
94.276   6.84000000e+02 
94.240   7.81000000e+02 
94.204   7.83000000e+02 
94.168   8.18000000e+02 
94.132   8.64000000e+02 
94.096   8.67000000e+02 
94.060   9.04000000e+02 
94.024   9.00000000e+02 
93.988   1.02800000e+03 
93.952   9.52000000e+02 
93.916   1.03200000e+03 
93.880   1.01600000e+03 
93.845   1.08600000e+03 
93.809   1.08900000e+03 
93.773   1.13700000e+03 
93.737   1.17700000e+03 
93.701   1.17400000e+03 
93.665   1.14600000e+03 
93.629   1.21000000e+03 
93.593   1.21200000e+03 
93.557   1.19300000e+03 
93.521   1.16500000e+03 
93.485   1.12100000e+03 
93.449   1.12200000e+03 
93.413   1.08000000e+03 
93.377   1.10800000e+03 
93.341   9.16000000e+02 
93.305   8.61000000e+02 
93.270   8.33000000e+02 
93.234   8.32000000e+02 
93.198   7.52000000e+02 
93.162   6.32000000e+02 
93.126   6.07000000e+02 
93.090   5.46000000e+02 
93.054   5.21000000e+02 
93.018   4.63000000e+02 
92.982   4.79000000e+02 
92.946   4.12000000e+02 
92.910   3.74000000e+02 
92.874   3.19000000e+02 
92.838   3.51000000e+02 
92.802   3.14000000e+02 
92.766   3.06000000e+02 
92.730   2.75000000e+02 
92.695   2.70000000e+02 
92.659   2.73000000e+02 
92.623   2.89000000e+02 
92.587   2.53000000e+02 
92.551   2.74000000e+02 
92.515   2.44000000e+02 
92.479   2.41000000e+02 
92.443   2.82000000e+02 
92.407   2.58000000e+02 
92.371   2.56000000e+02 
92.335   2.37000000e+02 
92.299   2.67000000e+02 
92.263   2.19000000e+02 
92.227   2.31000000e+02 
92.191   2.47000000e+02 
92.155   2.36000000e+02 
92.120   2.43000000e+02 
92.084   2.49000000e+02 
92.048   2.41000000e+02 
92.012   2.70000000e+02 
91.976   2.31000000e+02 
91.940   2.53000000e+02 
91.904   2.61000000e+02 
91.868   2.78000000e+02 
91.832   2.31000000e+02 
91.796   2.40000000e+02 
91.760   2.60000000e+02 
91.724   2.64000000e+02 
91.688   2.99000000e+02 
91.652   2.38000000e+02 
91.616   2.86000000e+02 
91.580   2.76000000e+02 
91.545   2.99000000e+02 
91.509   3.01000000e+02 
91.473   3.35000000e+02 
91.437   3.05000000e+02 
91.401   3.35000000e+02 
91.365   3.54000000e+02 
91.329   3.60000000e+02 
91.293   3.45000000e+02 
91.257   3.56000000e+02 
91.221   4.06000000e+02 
91.185   4.08000000e+02 
91.149   4.68000000e+02 
91.113   4.70000000e+02 
91.077   4.98000000e+02 
91.041   4.86000000e+02 
91.005   4.92000000e+02 
90.970   5.13000000e+02 
90.934   5.35000000e+02 
90.898   6.34000000e+02 
90.862   6.27000000e+02 
90.826   6.65000000e+02 
90.790   6.92000000e+02 
90.754   7.53000000e+02 
90.718   7.70000000e+02 
90.682   7.82000000e+02 
90.646   8.42000000e+02 
90.610   8.99000000e+02 
90.574   8.89000000e+02 
90.538   9.78000000e+02 
90.502   1.01200000e+03 
90.466   1.01100000e+03 
90.430   1.02400000e+03 
90.395   1.21300000e+03 
90.359   1.15800000e+03 
90.323   1.21400000e+03 
90.287   1.26000000e+03 
90.251   1.32600000e+03 
90.215   1.43000000e+03 
90.179   1.38700000e+03 
90.143   1.44900000e+03 
90.107   1.40300000e+03 
90.071   1.50200000e+03 
90.035   1.45800000e+03 
89.999   1.44900000e+03 
89.963   1.49300000e+03 
89.927   1.42600000e+03 
89.891   1.42800000e+03 
89.855   1.29200000e+03 
89.820   1.27100000e+03 
89.784   1.26800000e+03 
89.748   1.12400000e+03 
89.712   1.08700000e+03 
89.676   1.01600000e+03 
89.640   9.19000000e+02 
89.604   8.82000000e+02 
89.568   7.28000000e+02 
89.532   6.79000000e+02 
89.496   6.10000000e+02 
89.460   6.09000000e+02 
89.424   4.85000000e+02 
89.388   4.75000000e+02 
89.352   4.69000000e+02 
89.316   3.54000000e+02 
89.280   3.44000000e+02 
89.245   3.17000000e+02 
89.209   2.94000000e+02 
89.173   2.74000000e+02 
89.137   2.51000000e+02 
89.101   2.44000000e+02 
89.065   2.12000000e+02 
89.029   1.97000000e+02 
88.993   1.86000000e+02 
88.957   2.07000000e+02 
88.921   1.74000000e+02 
88.885   1.65000000e+02 
88.849   1.53000000e+02 
88.813   1.48000000e+02 
88.777   1.82000000e+02 
88.741   1.57000000e+02 
88.705   1.47000000e+02 
88.670   1.38000000e+02 
88.634   1.64000000e+02 
88.598   1.37000000e+02 
88.562   1.27000000e+02 
88.526   1.51000000e+02 
88.490   1.25000000e+02 
88.454   1.49000000e+02 
88.418   1.28000000e+02 
88.382   1.38000000e+02 
88.346   1.28000000e+02 
88.310   1.33000000e+02 
88.274   1.28000000e+02 
88.238   1.08000000e+02 
88.202   8.90000000e+01 
88.166   1.18000000e+02 
88.130   1.06000000e+02 
88.095   9.60000000e+01 
88.059   1.14000000e+02 
88.023   1.04000000e+02 

