EXPERIMENT FILE
Version = 2

[ Experiment Parameters ]
Experiment Description= <none> 
Number_of_Regions_in_Experiment= 1 

Original_File_name= C:\alexesca\data\12202112_Au _4f_20deg_800W.xps 
Instrument= HP ESCA West
Date= 12-21-2012
Time=  14:15:34

[ Layer Parameters ]
Layer_Type= XPS

[ Region 1 Parameters ]
Region_Description = Au 4f Dithered Scan                
BEcenter(eV) = 93.000000
BEwidth(eV) = 10.000000
BEstep(eV) = 0.035937
Dwell_Time(sec) = 1.000000
N_o_scans = 1  
N_o_Channels = 278  
Scan_mode = 0  (DITHERED)

[ L= 1 R= 1 ]
BEcenter= 93.000  
BEwidth= -9.955  
Excitation= 1486.600
Time_p_channel= 256.000 
Size= 278
97.977   1.77000000e+02 
97.941   1.89000000e+02 
97.905   2.11000000e+02 
97.870   1.91000000e+02 
97.834   1.80000000e+02 
97.798   1.77000000e+02 
97.762   1.96000000e+02 
97.726   1.72000000e+02 
97.690   1.95000000e+02 
97.654   2.12000000e+02 
97.618   2.12000000e+02 
97.582   1.99000000e+02 
97.546   2.03000000e+02 
97.510   1.89000000e+02 
97.474   1.62000000e+02 
97.438   2.10000000e+02 
97.402   2.16000000e+02 
97.366   1.78000000e+02 
97.330   2.09000000e+02 
97.295   2.04000000e+02 
97.259   2.03000000e+02 
97.223   2.27000000e+02 
97.187   1.76000000e+02 
97.151   1.90000000e+02 
97.115   2.32000000e+02 
97.079   2.00000000e+02 
97.043   2.17000000e+02 
97.007   2.07000000e+02 
96.971   2.01000000e+02 
96.935   2.02000000e+02 
96.899   1.77000000e+02 
96.863   2.00000000e+02 
96.827   2.13000000e+02 
96.791   2.20000000e+02 
96.755   2.00000000e+02 
96.720   2.24000000e+02 
96.684   1.95000000e+02 
96.648   2.13000000e+02 
96.612   2.00000000e+02 
96.576   1.73000000e+02 
96.540   2.09000000e+02 
96.504   2.00000000e+02 
96.468   2.30000000e+02 
96.432   2.26000000e+02 
96.396   2.01000000e+02 
96.360   2.00000000e+02 
96.324   2.59000000e+02 
96.288   2.24000000e+02 
96.252   2.12000000e+02 
96.216   1.97000000e+02 
96.180   2.37000000e+02 
96.145   2.33000000e+02 
96.109   2.07000000e+02 
96.073   2.03000000e+02 
96.037   2.26000000e+02 
96.001   1.95000000e+02 
95.965   2.39000000e+02 
95.929   2.16000000e+02 
95.893   2.48000000e+02 
95.857   2.23000000e+02 
95.821   2.41000000e+02 
95.785   2.46000000e+02 
95.749   2.28000000e+02 
95.713   2.31000000e+02 
95.677   2.46000000e+02 
95.641   2.75000000e+02 
95.605   2.40000000e+02 
95.570   2.76000000e+02 
95.534   2.81000000e+02 
95.498   2.53000000e+02 
95.462   2.81000000e+02 
95.426   2.85000000e+02 
95.390   2.94000000e+02 
95.354   2.97000000e+02 
95.318   3.06000000e+02 
95.282   3.54000000e+02 
95.246   2.89000000e+02 
95.210   2.91000000e+02 
95.174   3.56000000e+02 
95.138   3.34000000e+02 
95.102   3.96000000e+02 
95.066   4.03000000e+02 
95.030   4.16000000e+02 
94.995   4.28000000e+02 
94.959   4.51000000e+02 
94.923   3.87000000e+02 
94.887   4.54000000e+02 
94.851   4.47000000e+02 
94.815   5.54000000e+02 
94.779   5.17000000e+02 
94.743   5.61000000e+02 
94.707   5.95000000e+02 
94.671   5.99000000e+02 
94.635   6.52000000e+02 
94.599   6.55000000e+02 
94.563   6.88000000e+02 
94.527   7.45000000e+02 
94.491   7.43000000e+02 
94.455   7.89000000e+02 
94.420   8.96000000e+02 
94.384   8.63000000e+02 
94.348   8.86000000e+02 
94.312   9.38000000e+02 
94.276   9.55000000e+02 
94.240   1.04400000e+03 
94.204   1.04700000e+03 
94.168   1.04500000e+03 
94.132   1.09800000e+03 
94.096   1.10700000e+03 
94.060   1.10000000e+03 
94.024   1.12500000e+03 
93.988   1.05300000e+03 
93.952   1.01700000e+03 
93.916   1.02700000e+03 
93.880   1.07500000e+03 
93.845   9.56000000e+02 
93.809   9.26000000e+02 
93.773   8.76000000e+02 
93.737   8.48000000e+02 
93.701   8.32000000e+02 
93.665   7.78000000e+02 
93.629   7.09000000e+02 
93.593   6.55000000e+02 
93.557   6.28000000e+02 
93.521   5.89000000e+02 
93.485   5.45000000e+02 
93.449   4.55000000e+02 
93.413   4.74000000e+02 
93.377   4.69000000e+02 
93.341   3.87000000e+02 
93.305   4.42000000e+02 
93.270   3.68000000e+02 
93.234   3.14000000e+02 
93.198   3.11000000e+02 
93.162   2.49000000e+02 
93.126   2.69000000e+02 
93.090   2.75000000e+02 
93.054   2.58000000e+02 
93.018   2.28000000e+02 
92.982   2.49000000e+02 
92.946   2.28000000e+02 
92.910   2.56000000e+02 
92.874   2.40000000e+02 
92.838   2.56000000e+02 
92.802   2.60000000e+02 
92.766   2.60000000e+02 
92.730   2.03000000e+02 
92.695   2.25000000e+02 
92.659   2.12000000e+02 
92.623   2.47000000e+02 
92.587   2.08000000e+02 
92.551   1.85000000e+02 
92.515   2.10000000e+02 
92.479   2.14000000e+02 
92.443   2.01000000e+02 
92.407   2.20000000e+02 
92.371   2.08000000e+02 
92.335   2.06000000e+02 
92.299   1.97000000e+02 
92.263   2.34000000e+02 
92.227   1.81000000e+02 
92.191   1.85000000e+02 
92.155   1.89000000e+02 
92.120   2.27000000e+02 
92.084   1.94000000e+02 
92.048   2.10000000e+02 
92.012   2.35000000e+02 
91.976   2.44000000e+02 
91.940   2.40000000e+02 
91.904   2.42000000e+02 
91.868   2.36000000e+02 
91.832   2.67000000e+02 
91.796   2.31000000e+02 
91.760   2.53000000e+02 
91.724   3.03000000e+02 
91.688   2.65000000e+02 
91.652   2.81000000e+02 
91.616   2.70000000e+02 
91.580   3.22000000e+02 
91.545   3.13000000e+02 
91.509   3.45000000e+02 
91.473   3.59000000e+02 
91.437   3.60000000e+02 
91.401   3.53000000e+02 
91.365   4.16000000e+02 
91.329   4.10000000e+02 
91.293   4.75000000e+02 
91.257   4.35000000e+02 
91.221   4.90000000e+02 
91.185   5.20000000e+02 
91.149   5.35000000e+02 
91.113   5.25000000e+02 
91.077   5.56000000e+02 
91.041   6.14000000e+02 
91.005   6.38000000e+02 
90.970   6.87000000e+02 
90.934   7.20000000e+02 
90.898   8.09000000e+02 
90.862   8.44000000e+02 
90.826   8.60000000e+02 
90.790   9.03000000e+02 
90.754   9.36000000e+02 
90.718   1.00300000e+03 
90.682   1.04900000e+03 
90.646   1.05600000e+03 
90.610   1.12500000e+03 
90.574   1.14600000e+03 
90.538   1.14500000e+03 
90.502   1.18300000e+03 
90.466   1.21700000e+03 
90.430   1.30800000e+03 
90.395   1.25500000e+03 
90.359   1.30100000e+03 
90.323   1.29300000e+03 
90.287   1.27200000e+03 
90.251   1.27400000e+03 
90.215   1.25100000e+03 
90.179   1.21000000e+03 
90.143   1.23100000e+03 
90.107   1.11000000e+03 
90.071   1.09100000e+03 
90.035   1.03200000e+03 
89.999   9.19000000e+02 
89.963   8.63000000e+02 
89.927   8.50000000e+02 
89.891   7.22000000e+02 
89.855   7.23000000e+02 
89.820   5.82000000e+02 
89.784   5.92000000e+02 
89.748   5.28000000e+02 
89.712   4.67000000e+02 
89.676   4.28000000e+02 
89.640   4.05000000e+02 
89.604   3.21000000e+02 
89.568   3.37000000e+02 
89.532   2.90000000e+02 
89.496   2.65000000e+02 
89.460   2.45000000e+02 
89.424   2.26000000e+02 
89.388   2.06000000e+02 
89.352   2.00000000e+02 
89.316   1.73000000e+02 
89.280   1.85000000e+02 
89.245   1.74000000e+02 
89.209   1.57000000e+02 
89.173   1.73000000e+02 
89.137   1.58000000e+02 
89.101   1.41000000e+02 
89.065   1.48000000e+02 
89.029   1.45000000e+02 
88.993   1.44000000e+02 
88.957   1.38000000e+02 
88.921   1.18000000e+02 
88.885   1.24000000e+02 
88.849   9.80000000e+01 
88.813   1.15000000e+02 
88.777   1.06000000e+02 
88.741   1.16000000e+02 
88.705   9.60000000e+01 
88.670   1.08000000e+02 
88.634   1.03000000e+02 
88.598   9.80000000e+01 
88.562   9.20000000e+01 
88.526   1.03000000e+02 
88.490   1.20000000e+02 
88.454   9.90000000e+01 
88.418   1.01000000e+02 
88.382   1.03000000e+02 
88.346   9.20000000e+01 
88.310   1.01000000e+02 
88.274   9.70000000e+01 
88.238   1.07000000e+02 
88.202   9.80000000e+01 
88.166   1.02000000e+02 
88.130   9.80000000e+01 
88.095   1.03000000e+02 
88.059   7.80000000e+01 
88.023   8.60000000e+01 

