EXPERIMENT FILE
Version = 2

[ Experiment Parameters ]
Experiment Description= <none> 
Number_of_Regions_in_Experiment= 1 

Original_File_name= C:\alexesca\data\12202012_Au _4f_Power_Check_200W.xps 
Instrument= HP ESCA West
Date= 12-20-2012
Time=  13:28:04

[ Layer Parameters ]
Layer_Type= XPS

[ Region 1 Parameters ]
Region_Description = Au 4f Dithered Scan 2sec x2        
BEcenter(eV) = 93.000000
BEwidth(eV) = 10.000000
BEstep(eV) = 0.035937
Dwell_Time(sec) = 2.000000
N_o_scans = 2  
N_o_Channels = 278  
Scan_mode = 0  (DITHERED)

[ L= 1 R= 1 ]
BEcenter= 93.000  
BEwidth= -9.955  
Excitation= 1486.600
Time_p_channel= 1024.000
Size= 278
97.977   3.48000000e+02 
97.941   3.88000000e+02 
97.905   3.61000000e+02 
97.870   3.49000000e+02 
97.834   3.59000000e+02 
97.798   3.70000000e+02 
97.762   3.57000000e+02 
97.726   3.66000000e+02 
97.690   3.68000000e+02 
97.654   3.42000000e+02 
97.618   3.69000000e+02 
97.582   3.71000000e+02 
97.546   3.46000000e+02 
97.510   3.40000000e+02 
97.474   3.47000000e+02 
97.438   3.50000000e+02 
97.402   3.79000000e+02 
97.366   3.57000000e+02 
97.330   3.47000000e+02 
97.295   3.33000000e+02 
97.259   4.00000000e+02 
97.223   3.81000000e+02 
97.187   3.21000000e+02 
97.151   3.71000000e+02 
97.115   3.97000000e+02 
97.079   3.60000000e+02 
97.043   3.69000000e+02 
97.007   4.26000000e+02 
96.971   4.10000000e+02 
96.935   3.80000000e+02 
96.899   3.77000000e+02 
96.863   3.94000000e+02 
96.827   3.94000000e+02 
96.791   4.04000000e+02 
96.755   4.00000000e+02 
96.720   4.25000000e+02 
96.684   3.75000000e+02 
96.648   3.83000000e+02 
96.612   3.98000000e+02 
96.576   3.75000000e+02 
96.540   4.18000000e+02 
96.504   3.89000000e+02 
96.468   3.79000000e+02 
96.432   4.29000000e+02 
96.396   4.10000000e+02 
96.360   4.03000000e+02 
96.324   4.00000000e+02 
96.288   4.47000000e+02 
96.252   4.06000000e+02 
96.216   4.05000000e+02 
96.180   4.11000000e+02 
96.145   4.29000000e+02 
96.109   4.05000000e+02 
96.073   4.60000000e+02 
96.037   4.53000000e+02 
96.001   4.00000000e+02 
95.965   4.11000000e+02 
95.929   4.26000000e+02 
95.893   4.20000000e+02 
95.857   4.33000000e+02 
95.821   4.29000000e+02 
95.785   4.38000000e+02 
95.749   3.97000000e+02 
95.713   4.18000000e+02 
95.677   4.11000000e+02 
95.641   4.33000000e+02 
95.605   4.46000000e+02 
95.570   4.58000000e+02 
95.534   4.66000000e+02 
95.498   4.46000000e+02 
95.462   4.91000000e+02 
95.426   4.94000000e+02 
95.390   4.69000000e+02 
95.354   5.26000000e+02 
95.318   4.96000000e+02 
95.282   5.52000000e+02 
95.246   5.35000000e+02 
95.210   5.07000000e+02 
95.174   5.58000000e+02 
95.138   5.51000000e+02 
95.102   5.55000000e+02 
95.066   5.83000000e+02 
95.030   6.18000000e+02 
94.995   6.13000000e+02 
94.959   6.42000000e+02 
94.923   7.01000000e+02 
94.887   6.76000000e+02 
94.851   6.80000000e+02 
94.815   7.40000000e+02 
94.779   7.59000000e+02 
94.743   7.75000000e+02 
94.707   8.40000000e+02 
94.671   7.82000000e+02 
94.635   8.21000000e+02 
94.599   9.38000000e+02 
94.563   9.50000000e+02 
94.527   9.86000000e+02 
94.491   1.06900000e+03 
94.455   1.06600000e+03 
94.420   1.16400000e+03 
94.384   1.17000000e+03 
94.348   1.26400000e+03 
94.312   1.29500000e+03 
94.276   1.31000000e+03 
94.240   1.43600000e+03 
94.204   1.37900000e+03 
94.168   1.53800000e+03 
94.132   1.65900000e+03 
94.096   1.59600000e+03 
94.060   1.72500000e+03 
94.024   1.76200000e+03 
93.988   1.78600000e+03 
93.952   1.88100000e+03 
93.916   1.97000000e+03 
93.880   2.02000000e+03 
93.845   2.11800000e+03 
93.809   2.10300000e+03 
93.773   2.16500000e+03 
93.737   2.11300000e+03 
93.701   2.16100000e+03 
93.665   2.20100000e+03 
93.629   2.20600000e+03 
93.593   2.14900000e+03 
93.557   2.22100000e+03 
93.521   2.17500000e+03 
93.485   1.97500000e+03 
93.449   1.97500000e+03 
93.413   1.78300000e+03 
93.377   1.80900000e+03 
93.341   1.61200000e+03 
93.305   1.43700000e+03 
93.270   1.43800000e+03 
93.234   1.26900000e+03 
93.198   1.16700000e+03 
93.162   1.07400000e+03 
93.126   9.89000000e+02 
93.090   9.12000000e+02 
93.054   8.24000000e+02 
93.018   8.00000000e+02 
92.982   7.22000000e+02 
92.946   6.78000000e+02 
92.910   6.74000000e+02 
92.874   5.99000000e+02 
92.838   6.28000000e+02 
92.802   5.41000000e+02 
92.766   5.24000000e+02 
92.730   4.96000000e+02 
92.695   4.79000000e+02 
92.659   4.35000000e+02 
92.623   4.58000000e+02 
92.587   4.69000000e+02 
92.551   4.65000000e+02 
92.515   4.65000000e+02 
92.479   4.49000000e+02 
92.443   4.46000000e+02 
92.407   3.94000000e+02 
92.371   4.19000000e+02 
92.335   4.57000000e+02 
92.299   4.23000000e+02 
92.263   4.47000000e+02 
92.227   4.42000000e+02 
92.191   4.09000000e+02 
92.155   4.16000000e+02 
92.120   4.23000000e+02 
92.084   4.27000000e+02 
92.048   4.18000000e+02 
92.012   3.86000000e+02 
91.976   3.97000000e+02 
91.940   4.26000000e+02 
91.904   4.10000000e+02 
91.868   4.68000000e+02 
91.832   4.34000000e+02 
91.796   4.43000000e+02 
91.760   4.36000000e+02 
91.724   4.45000000e+02 
91.688   4.54000000e+02 
91.652   4.79000000e+02 
91.616   4.55000000e+02 
91.580   5.31000000e+02 
91.545   5.43000000e+02 
91.509   5.21000000e+02 
91.473   5.23000000e+02 
91.437   5.11000000e+02 
91.401   5.78000000e+02 
91.365   6.46000000e+02 
91.329   6.22000000e+02 
91.293   6.64000000e+02 
91.257   7.02000000e+02 
91.221   6.88000000e+02 
91.185   7.38000000e+02 
91.149   7.60000000e+02 
91.113   7.76000000e+02 
91.077   8.01000000e+02 
91.041   8.73000000e+02 
91.005   8.89000000e+02 
90.970   9.43000000e+02 
90.934   9.73000000e+02 
90.898   1.02400000e+03 
90.862   1.08300000e+03 
90.826   1.17900000e+03 
90.790   1.17100000e+03 
90.754   1.22500000e+03 
90.718   1.36300000e+03 
90.682   1.38000000e+03 
90.646   1.41300000e+03 
90.610   1.51700000e+03 
90.574   1.56500000e+03 
90.538   1.68200000e+03 
90.502   1.76800000e+03 
90.466   1.75200000e+03 
90.430   1.94200000e+03 
90.395   2.05300000e+03 
90.359   2.14700000e+03 
90.323   2.11400000e+03 
90.287   2.15300000e+03 
90.251   2.30300000e+03 
90.215   2.44500000e+03 
90.179   2.44400000e+03 
90.143   2.49600000e+03 
90.107   2.61900000e+03 
90.071   2.66900000e+03 
90.035   2.68900000e+03 
89.999   2.62800000e+03 
89.963   2.62200000e+03 
89.927   2.54900000e+03 
89.891   2.59100000e+03 
89.855   2.59800000e+03 
89.820   2.34500000e+03 
89.784   2.33200000e+03 
89.748   2.19900000e+03 
89.712   2.01100000e+03 
89.676   1.92600000e+03 
89.640   1.78700000e+03 
89.604   1.62100000e+03 
89.568   1.51000000e+03 
89.532   1.29000000e+03 
89.496   1.12000000e+03 
89.460   1.07600000e+03 
89.424   9.88000000e+02 
89.388   8.77000000e+02 
89.352   7.90000000e+02 
89.316   7.43000000e+02 
89.280   6.84000000e+02 
89.245   5.83000000e+02 
89.209   5.22000000e+02 
89.173   4.86000000e+02 
89.137   4.30000000e+02 
89.101   4.10000000e+02 
89.065   4.19000000e+02 
89.029   3.66000000e+02 
88.993   3.77000000e+02 
88.957   3.43000000e+02 
88.921   3.13000000e+02 
88.885   3.21000000e+02 
88.849   2.83000000e+02 
88.813   2.70000000e+02 
88.777   2.95000000e+02 
88.741   2.52000000e+02 
88.705   2.54000000e+02 
88.670   2.42000000e+02 
88.634   2.64000000e+02 
88.598   2.42000000e+02 
88.562   2.23000000e+02 
88.526   2.41000000e+02 
88.490   2.40000000e+02 
88.454   2.26000000e+02 
88.418   2.26000000e+02 
88.382   2.18000000e+02 
88.346   1.94000000e+02 
88.310   2.19000000e+02 
88.274   2.08000000e+02 
88.238   2.15000000e+02 
88.202   2.20000000e+02 
88.166   1.94000000e+02 
88.130   1.92000000e+02 
88.095   1.68000000e+02 
88.059   1.70000000e+02 
88.023   1.86000000e+02 

