EXPERIMENT FILE
Version = 2

[ Experiment Parameters ]
Experiment Description= <none> 
Number_of_Regions_in_Experiment= 1 

Original_File_name= C:\alexesca\data\12202112_Au _4f_Power_Check_800W.xps 
Instrument= HP ESCA West
Date= 12-21-2012
Time=  13:12:42

[ Layer Parameters ]
Layer_Type= XPS

[ Region 1 Parameters ]
Region_Description = Au 4f Dithered Scan 2sec x2        
BEcenter(eV) = 93.000000
BEwidth(eV) = 10.000000
BEstep(eV) = 0.035937
Dwell_Time(sec) = 2.000000
N_o_scans = 2  
N_o_Channels = 278  
Scan_mode = 0  (DITHERED)

[ L= 1 R= 1 ]
BEcenter= 93.000  
BEwidth= -9.955  
Excitation= 1486.600
Time_p_channel= 1024.000
Size= 278
97.977   1.41700000e+03 
97.941   1.45400000e+03 
97.905   1.42200000e+03 
97.870   1.39500000e+03 
97.834   1.44900000e+03 
97.798   1.52500000e+03 
97.762   1.49600000e+03 
97.726   1.49100000e+03 
97.690   1.47500000e+03 
97.654   1.47600000e+03 
97.618   1.43000000e+03 
97.582   1.51200000e+03 
97.546   1.55800000e+03 
97.510   1.60300000e+03 
97.474   1.57000000e+03 
97.438   1.48700000e+03 
97.402   1.51200000e+03 
97.366   1.55700000e+03 
97.330   1.53400000e+03 
97.295   1.53200000e+03 
97.259   1.60400000e+03 
97.223   1.54000000e+03 
97.187   1.45900000e+03 
97.151   1.49100000e+03 
97.115   1.62100000e+03 
97.079   1.57900000e+03 
97.043   1.55500000e+03 
97.007   1.63900000e+03 
96.971   1.58300000e+03 
96.935   1.55200000e+03 
96.899   1.60100000e+03 
96.863   1.60600000e+03 
96.827   1.65300000e+03 
96.791   1.58600000e+03 
96.755   1.59400000e+03 
96.720   1.67700000e+03 
96.684   1.58900000e+03 
96.648   1.70200000e+03 
96.612   1.59800000e+03 
96.576   1.70900000e+03 
96.540   1.66600000e+03 
96.504   1.65400000e+03 
96.468   1.64100000e+03 
96.432   1.62700000e+03 
96.396   1.57900000e+03 
96.360   1.65200000e+03 
96.324   1.73700000e+03 
96.288   1.66800000e+03 
96.252   1.75100000e+03 
96.216   1.73600000e+03 
96.180   1.80300000e+03 
96.145   1.71800000e+03 
96.109   1.67700000e+03 
96.073   1.77500000e+03 
96.037   1.85600000e+03 
96.001   1.79400000e+03 
95.965   1.90100000e+03 
95.929   1.83300000e+03 
95.893   1.90800000e+03 
95.857   2.03200000e+03 
95.821   1.94800000e+03 
95.785   2.01400000e+03 
95.749   2.05200000e+03 
95.713   2.07900000e+03 
95.677   2.06900000e+03 
95.641   2.25800000e+03 
95.605   2.26800000e+03 
95.570   2.31000000e+03 
95.534   2.28500000e+03 
95.498   2.50900000e+03 
95.462   2.60800000e+03 
95.426   2.61700000e+03 
95.390   2.63800000e+03 
95.354   2.72700000e+03 
95.318   2.75900000e+03 
95.282   2.91800000e+03 
95.246   3.02500000e+03 
95.210   3.23800000e+03 
95.174   3.24800000e+03 
95.138   3.48900000e+03 
95.102   3.58000000e+03 
95.066   3.63900000e+03 
95.030   3.83400000e+03 
94.995   4.00400000e+03 
94.959   4.17400000e+03 
94.923   4.43500000e+03 
94.887   4.54800000e+03 
94.851   4.80900000e+03 
94.815   4.89700000e+03 
94.779   5.08200000e+03 
94.743   5.34600000e+03 
94.707   5.57400000e+03 
94.671   5.79900000e+03 
94.635   5.94000000e+03 
94.599   6.34000000e+03 
94.563   6.45100000e+03 
94.527   6.75300000e+03 
94.491   6.96900000e+03 
94.455   7.15100000e+03 
94.420   7.46000000e+03 
94.384   7.56300000e+03 
94.348   7.76200000e+03 
94.312   7.96400000e+03 
94.276   8.02400000e+03 
94.240   8.15400000e+03 
94.204   8.21700000e+03 
94.168   8.26200000e+03 
94.132   8.21600000e+03 
94.096   8.17700000e+03 
94.060   8.15100000e+03 
94.024   8.04700000e+03 
93.988   7.68200000e+03 
93.952   7.72400000e+03 
93.916   7.36600000e+03 
93.880   7.05400000e+03 
93.845   6.56000000e+03 
93.809   6.19700000e+03 
93.773   5.81900000e+03 
93.737   5.46100000e+03 
93.701   5.08900000e+03 
93.665   4.69500000e+03 
93.629   4.34300000e+03 
93.593   4.00800000e+03 
93.557   3.92800000e+03 
93.521   3.56300000e+03 
93.485   3.23000000e+03 
93.449   3.04200000e+03 
93.413   2.80300000e+03 
93.377   2.60700000e+03 
93.341   2.47200000e+03 
93.305   2.38900000e+03 
93.270   2.25100000e+03 
93.234   2.09400000e+03 
93.198   2.06800000e+03 
93.162   1.95300000e+03 
93.126   2.02100000e+03 
93.090   1.87300000e+03 
93.054   1.83800000e+03 
93.018   1.84500000e+03 
92.982   1.74200000e+03 
92.946   1.74200000e+03 
92.910   1.73200000e+03 
92.874   1.67400000e+03 
92.838   1.81600000e+03 
92.802   1.69600000e+03 
92.766   1.68900000e+03 
92.730   1.69400000e+03 
92.695   1.64400000e+03 
92.659   1.70600000e+03 
92.623   1.70000000e+03 
92.587   1.70000000e+03 
92.551   1.69100000e+03 
92.515   1.56800000e+03 
92.479   1.62100000e+03 
92.443   1.70700000e+03 
92.407   1.67700000e+03 
92.371   1.78900000e+03 
92.335   1.77200000e+03 
92.299   1.72400000e+03 
92.263   1.83500000e+03 
92.227   1.85900000e+03 
92.191   1.87700000e+03 
92.155   1.99400000e+03 
92.120   1.91200000e+03 
92.084   2.03100000e+03 
92.048   2.04100000e+03 
92.012   2.16800000e+03 
91.976   2.16000000e+03 
91.940   2.28900000e+03 
91.904   2.32800000e+03 
91.868   2.46400000e+03 
91.832   2.51400000e+03 
91.796   2.58500000e+03 
91.760   2.79000000e+03 
91.724   2.83000000e+03 
91.688   2.97400000e+03 
91.652   3.00400000e+03 
91.616   3.12900000e+03 
91.580   3.40400000e+03 
91.545   3.42700000e+03 
91.509   3.67100000e+03 
91.473   3.78800000e+03 
91.437   3.94800000e+03 
91.401   4.13800000e+03 
91.365   4.32200000e+03 
91.329   4.63800000e+03 
91.293   4.80100000e+03 
91.257   5.09600000e+03 
91.221   5.37000000e+03 
91.185   5.66800000e+03 
91.149   5.86100000e+03 
91.113   6.17000000e+03 
91.077   6.41200000e+03 
91.041   6.70100000e+03 
91.005   7.08900000e+03 
90.970   7.40000000e+03 
90.934   7.74300000e+03 
90.898   7.83400000e+03 
90.862   8.24700000e+03 
90.826   8.67200000e+03 
90.790   8.95500000e+03 
90.754   9.29300000e+03 
90.718   9.33200000e+03 
90.682   9.78800000e+03 
90.646   1.00880000e+04 
90.610   1.02950000e+04 
90.574   1.02930000e+04 
90.538   1.03070000e+04 
90.502   1.03780000e+04 
90.466   1.02180000e+04 
90.430   1.01990000e+04 
90.395   1.00370000e+04 
90.359   9.85100000e+03 
90.323   9.39100000e+03 
90.287   9.15600000e+03 
90.251   8.64400000e+03 
90.215   8.21900000e+03 
90.179   7.64600000e+03 
90.143   7.14900000e+03 
90.107   6.53600000e+03 
90.071   6.14300000e+03 
90.035   5.59100000e+03 
89.999   5.02300000e+03 
89.963   4.55000000e+03 
89.927   4.19400000e+03 
89.891   3.74600000e+03 
89.855   3.39500000e+03 
89.820   3.12200000e+03 
89.784   2.76300000e+03 
89.748   2.53200000e+03 
89.712   2.34400000e+03 
89.676   2.11000000e+03 
89.640   1.93100000e+03 
89.604   1.83400000e+03 
89.568   1.74900000e+03 
89.532   1.62100000e+03 
89.496   1.53800000e+03 
89.460   1.45400000e+03 
89.424   1.36900000e+03 
89.388   1.24500000e+03 
89.352   1.19900000e+03 
89.316   1.19800000e+03 
89.280   1.20100000e+03 
89.245   1.08200000e+03 
89.209   1.05500000e+03 
89.173   1.00000000e+03 
89.137   9.66000000e+02 
89.101   9.67000000e+02 
89.065   9.39000000e+02 
89.029   9.48000000e+02 
88.993   9.65000000e+02 
88.957   8.58000000e+02 
88.921   8.53000000e+02 
88.885   9.05000000e+02 
88.849   8.50000000e+02 
88.813   8.26000000e+02 
88.777   8.41000000e+02 
88.741   7.89000000e+02 
88.705   8.28000000e+02 
88.670   7.95000000e+02 
88.634   7.43000000e+02 
88.598   7.35000000e+02 
88.562   7.12000000e+02 
88.526   6.98000000e+02 
88.490   7.72000000e+02 
88.454   7.58000000e+02 
88.418   7.30000000e+02 
88.382   7.47000000e+02 
88.346   6.79000000e+02 
88.310   7.19000000e+02 
88.274   6.93000000e+02 
88.238   6.78000000e+02 
88.202   6.54000000e+02 
88.166   6.72000000e+02 
88.130   7.16000000e+02 
88.095   7.13000000e+02 
88.059   6.62000000e+02 
88.023   7.01000000e+02 

