EXPERIMENT FILE
Version = 2

[ Experiment Parameters ]
Experiment Description= <none> 
Number_of_Regions_in_Experiment= 1 

Original_File_name= C:\alexesca\data\129ThetaNeg5.xps 
Instrument= HP ESCA West
Date= 01-29-2013
Time=  13:04:13

[ Layer Parameters ]
Layer_Type= XPS

[ Region 1 Parameters ]
Region_Description = Au 4f Dithered 94eV Center 9.2eV Width
BEcenter(eV) = 94.000000
BEwidth(eV) = 9.200000
BEstep(eV) = 0.035937
Dwell_Time(sec) = 1.000000
N_o_scans = 1  
N_o_Channels = 256  
Scan_mode = 0  (DITHERED)

[ L= 1 R= 1 ]
BEcenter= 94.000  
BEwidth= -9.164  
Excitation= 1486.600
Time_p_channel= 256.000 
Size= 256
98.582   7.18000000e+02 
98.546   7.84000000e+02 
98.510   7.42000000e+02 
98.474   7.36000000e+02 
98.438   7.24000000e+02 
98.402   7.90000000e+02 
98.366   8.16000000e+02 
98.330   7.86000000e+02 
98.295   7.77000000e+02 
98.259   7.83000000e+02 
98.223   8.23000000e+02 
98.187   7.60000000e+02 
98.151   7.92000000e+02 
98.115   8.30000000e+02 
98.079   7.62000000e+02 
98.043   8.18000000e+02 
98.007   8.09000000e+02 
97.971   7.74000000e+02 
97.935   8.20000000e+02 
97.899   7.99000000e+02 
97.863   7.86000000e+02 
97.827   7.97000000e+02 
97.791   7.99000000e+02 
97.755   7.66000000e+02 
97.720   8.55000000e+02 
97.684   8.19000000e+02 
97.648   8.72000000e+02 
97.612   8.28000000e+02 
97.576   8.27000000e+02 
97.540   8.20000000e+02 
97.504   8.05000000e+02 
97.468   9.28000000e+02 
97.432   9.25000000e+02 
97.396   8.72000000e+02 
97.360   9.44000000e+02 
97.324   9.33000000e+02 
97.288   9.04000000e+02 
97.252   9.68000000e+02 
97.216   9.49000000e+02 
97.180   9.92000000e+02 
97.145   9.74000000e+02 
97.109   1.00500000e+03 
97.073   9.71000000e+02 
97.037   1.12100000e+03 
97.001   1.07400000e+03 
96.965   1.15500000e+03 
96.929   1.17500000e+03 
96.893   1.19600000e+03 
96.857   1.22300000e+03 
96.821   1.30500000e+03 
96.785   1.28900000e+03 
96.749   1.38200000e+03 
96.713   1.45100000e+03 
96.677   1.48600000e+03 
96.641   1.50000000e+03 
96.605   1.55300000e+03 
96.570   1.65000000e+03 
96.534   1.65700000e+03 
96.498   1.79400000e+03 
96.462   1.85100000e+03 
96.426   2.01100000e+03 
96.390   2.06900000e+03 
96.354   2.14500000e+03 
96.318   2.30500000e+03 
96.282   2.49600000e+03 
96.246   2.57100000e+03 
96.210   2.63900000e+03 
96.174   2.89200000e+03 
96.138   2.93300000e+03 
96.102   3.19700000e+03 
96.066   3.23100000e+03 
96.030   3.39700000e+03 
95.995   3.61700000e+03 
95.959   3.68700000e+03 
95.923   3.78600000e+03 
95.887   3.96100000e+03 
95.851   4.11100000e+03 
95.815   4.27000000e+03 
95.779   4.39700000e+03 
95.743   4.48300000e+03 
95.707   4.51100000e+03 
95.671   4.58400000e+03 
95.635   4.68100000e+03 
95.599   4.64200000e+03 
95.563   4.60600000e+03 
95.527   4.57100000e+03 
95.491   4.52900000e+03 
95.455   4.31800000e+03 
95.420   4.15300000e+03 
95.384   4.11600000e+03 
95.348   3.98500000e+03 
95.312   3.77500000e+03 
95.276   3.59300000e+03 
95.240   3.27600000e+03 
95.204   3.08900000e+03 
95.168   2.81800000e+03 
95.132   2.72300000e+03 
95.096   2.48700000e+03 
95.060   2.32400000e+03 
95.024   2.10300000e+03 
94.988   1.93200000e+03 
94.952   1.81300000e+03 
94.916   1.67900000e+03 
94.880   1.52100000e+03 
94.845   1.51400000e+03 
94.809   1.39200000e+03 
94.773   1.33300000e+03 
94.737   1.19500000e+03 
94.701   1.16000000e+03 
94.665   1.11900000e+03 
94.629   1.06900000e+03 
94.593   1.07800000e+03 
94.557   1.03500000e+03 
94.521   1.00100000e+03 
94.485   9.24000000e+02 
94.449   9.26000000e+02 
94.413   8.62000000e+02 
94.377   9.30000000e+02 
94.341   8.98000000e+02 
94.305   8.49000000e+02 
94.270   9.20000000e+02 
94.234   8.36000000e+02 
94.198   8.44000000e+02 
94.162   7.84000000e+02 
94.126   8.20000000e+02 
94.090   7.93000000e+02 
94.054   8.04000000e+02 
94.018   8.63000000e+02 
93.982   8.30000000e+02 
93.946   7.88000000e+02 
93.910   7.95000000e+02 
93.874   7.80000000e+02 
93.838   8.23000000e+02 
93.802   8.23000000e+02 
93.766   8.58000000e+02 
93.730   8.06000000e+02 
93.695   8.38000000e+02 
93.659   7.93000000e+02 
93.623   8.31000000e+02 
93.587   8.76000000e+02 
93.551   8.89000000e+02 
93.515   9.47000000e+02 
93.479   9.40000000e+02 
93.443   9.76000000e+02 
93.407   9.70000000e+02 
93.371   1.01800000e+03 
93.335   1.00800000e+03 
93.299   1.12200000e+03 
93.263   1.16300000e+03 
93.227   1.17900000e+03 
93.191   1.17600000e+03 
93.155   1.27000000e+03 
93.120   1.34900000e+03 
93.084   1.36300000e+03 
93.048   1.43200000e+03 
93.012   1.45300000e+03 
92.976   1.54300000e+03 
92.940   1.61400000e+03 
92.904   1.71100000e+03 
92.868   1.84100000e+03 
92.832   1.88400000e+03 
92.796   2.03500000e+03 
92.760   2.09500000e+03 
92.724   2.17300000e+03 
92.688   2.36500000e+03 
92.652   2.44300000e+03 
92.616   2.59500000e+03 
92.580   2.72800000e+03 
92.545   2.92000000e+03 
92.509   3.11300000e+03 
92.473   3.32700000e+03 
92.437   3.45500000e+03 
92.401   3.66400000e+03 
92.365   3.81700000e+03 
92.329   4.16000000e+03 
92.293   4.34000000e+03 
92.257   4.51400000e+03 
92.221   4.56600000e+03 
92.185   4.74300000e+03 
92.149   5.04900000e+03 
92.113   5.15500000e+03 
92.077   5.22900000e+03 
92.041   5.39100000e+03 
92.005   5.54600000e+03 
91.970   5.64800000e+03 
91.934   5.68300000e+03 
91.898   5.70500000e+03 
91.862   5.76500000e+03 
91.826   5.56300000e+03 
91.790   5.54300000e+03 
91.754   5.30900000e+03 
91.718   5.06100000e+03 
91.682   4.95500000e+03 
91.646   4.71800000e+03 
91.610   4.46100000e+03 
91.574   4.14700000e+03 
91.538   3.78400000e+03 
91.502   3.60800000e+03 
91.466   3.26400000e+03 
91.430   2.98400000e+03 
91.395   2.63700000e+03 
91.359   2.39900000e+03 
91.323   2.13000000e+03 
91.287   2.01900000e+03 
91.251   1.83000000e+03 
91.215   1.74800000e+03 
91.179   1.51800000e+03 
91.143   1.35700000e+03 
91.107   1.27900000e+03 
91.071   1.10900000e+03 
91.035   1.13700000e+03 
90.999   1.01600000e+03 
90.963   9.20000000e+02 
90.927   8.74000000e+02 
90.891   8.49000000e+02 
90.855   8.05000000e+02 
90.820   7.23000000e+02 
90.784   6.95000000e+02 
90.748   6.12000000e+02 
90.712   6.37000000e+02 
90.676   6.04000000e+02 
90.640   6.13000000e+02 
90.604   5.44000000e+02 
90.568   5.46000000e+02 
90.532   6.02000000e+02 
90.496   4.94000000e+02 
90.460   5.02000000e+02 
90.424   5.24000000e+02 
90.388   4.95000000e+02 
90.352   4.66000000e+02 
90.316   4.71000000e+02 
90.280   4.52000000e+02 
90.245   4.57000000e+02 
90.209   4.34000000e+02 
90.173   3.96000000e+02 
90.137   4.27000000e+02 
90.101   4.11000000e+02 
90.065   4.06000000e+02 
90.029   3.82000000e+02 
89.993   3.83000000e+02 
89.957   3.62000000e+02 
89.921   3.89000000e+02 
89.885   3.99000000e+02 
89.849   3.94000000e+02 
89.813   4.03000000e+02 
89.777   3.58000000e+02 
89.741   3.79000000e+02 
89.705   3.46000000e+02 
89.670   3.54000000e+02 
89.634   3.49000000e+02 
89.598   3.46000000e+02 
89.562   3.87000000e+02 
89.526   3.73000000e+02 
89.490   3.08000000e+02 
89.454   3.28000000e+02 
89.418   3.61000000e+02 

