EXPERIMENT FILE
Version = 2

[ Experiment Parameters ]
Experiment Description= <none> 
Number_of_Regions_in_Experiment= 1 

Original_File_name= C:\alexesca\data\129ThetaNeg15.xps 
Instrument= HP ESCA West
Date= 01-29-2013
Time=  12:42:45

[ Layer Parameters ]
Layer_Type= XPS

[ Region 1 Parameters ]
Region_Description = Au 4f Dithered 94eV Center 9.2eV Width
BEcenter(eV) = 94.000000
BEwidth(eV) = 9.200000
BEstep(eV) = 0.035937
Dwell_Time(sec) = 1.000000
N_o_scans = 1  
N_o_Channels = 256  
Scan_mode = 0  (DITHERED)

[ L= 1 R= 1 ]
BEcenter= 94.000  
BEwidth= -9.164  
Excitation= 1486.600
Time_p_channel= 256.000 
Size= 256
98.582   5.34000000e+02 
98.546   4.98000000e+02 
98.510   5.41000000e+02 
98.474   4.86000000e+02 
98.438   4.97000000e+02 
98.402   4.88000000e+02 
98.366   5.29000000e+02 
98.330   5.11000000e+02 
98.295   5.06000000e+02 
98.259   5.03000000e+02 
98.223   4.94000000e+02 
98.187   5.25000000e+02 
98.151   5.42000000e+02 
98.115   5.72000000e+02 
98.079   5.20000000e+02 
98.043   5.45000000e+02 
98.007   5.14000000e+02 
97.971   5.20000000e+02 
97.935   5.04000000e+02 
97.899   5.44000000e+02 
97.863   5.32000000e+02 
97.827   5.23000000e+02 
97.791   5.57000000e+02 
97.755   5.25000000e+02 
97.720   5.03000000e+02 
97.684   5.00000000e+02 
97.648   5.24000000e+02 
97.612   5.63000000e+02 
97.576   5.34000000e+02 
97.540   5.34000000e+02 
97.504   5.44000000e+02 
97.468   5.62000000e+02 
97.432   5.46000000e+02 
97.396   6.18000000e+02 
97.360   5.84000000e+02 
97.324   6.11000000e+02 
97.288   5.93000000e+02 
97.252   5.95000000e+02 
97.216   6.22000000e+02 
97.180   6.16000000e+02 
97.145   5.88000000e+02 
97.109   6.73000000e+02 
97.073   6.33000000e+02 
97.037   7.02000000e+02 
97.001   7.58000000e+02 
96.965   7.31000000e+02 
96.929   7.04000000e+02 
96.893   7.06000000e+02 
96.857   7.71000000e+02 
96.821   7.91000000e+02 
96.785   8.28000000e+02 
96.749   8.49000000e+02 
96.713   8.49000000e+02 
96.677   8.99000000e+02 
96.641   8.50000000e+02 
96.605   9.59000000e+02 
96.570   9.74000000e+02 
96.534   1.02800000e+03 
96.498   1.09600000e+03 
96.462   1.22900000e+03 
96.426   1.20700000e+03 
96.390   1.28200000e+03 
96.354   1.39500000e+03 
96.318   1.37600000e+03 
96.282   1.45100000e+03 
96.246   1.53600000e+03 
96.210   1.63500000e+03 
96.174   1.68600000e+03 
96.138   1.80600000e+03 
96.102   1.87700000e+03 
96.066   1.96900000e+03 
96.030   2.10400000e+03 
95.995   2.27500000e+03 
95.959   2.22300000e+03 
95.923   2.41900000e+03 
95.887   2.56600000e+03 
95.851   2.62500000e+03 
95.815   2.78400000e+03 
95.779   2.82400000e+03 
95.743   2.89300000e+03 
95.707   2.89700000e+03 
95.671   2.98300000e+03 
95.635   3.02900000e+03 
95.599   3.07000000e+03 
95.563   2.99200000e+03 
95.527   3.00800000e+03 
95.491   2.93100000e+03 
95.455   2.83200000e+03 
95.420   2.74900000e+03 
95.384   2.64300000e+03 
95.348   2.43400000e+03 
95.312   2.34500000e+03 
95.276   2.28200000e+03 
95.240   2.13500000e+03 
95.204   1.98500000e+03 
95.168   1.82400000e+03 
95.132   1.71600000e+03 
95.096   1.49800000e+03 
95.060   1.41900000e+03 
95.024   1.28300000e+03 
94.988   1.21800000e+03 
94.952   1.17600000e+03 
94.916   1.03600000e+03 
94.880   1.04100000e+03 
94.845   9.19000000e+02 
94.809   8.33000000e+02 
94.773   7.86000000e+02 
94.737   7.76000000e+02 
94.701   7.60000000e+02 
94.665   7.16000000e+02 
94.629   6.70000000e+02 
94.593   6.27000000e+02 
94.557   6.40000000e+02 
94.521   6.43000000e+02 
94.485   5.99000000e+02 
94.449   5.60000000e+02 
94.413   5.86000000e+02 
94.377   5.28000000e+02 
94.341   5.31000000e+02 
94.305   5.29000000e+02 
94.270   5.30000000e+02 
94.234   5.59000000e+02 
94.198   5.46000000e+02 
94.162   5.12000000e+02 
94.126   5.30000000e+02 
94.090   5.11000000e+02 
94.054   5.11000000e+02 
94.018   5.64000000e+02 
93.982   5.13000000e+02 
93.946   5.17000000e+02 
93.910   5.03000000e+02 
93.874   4.57000000e+02 
93.838   5.21000000e+02 
93.802   5.53000000e+02 
93.766   5.43000000e+02 
93.730   4.95000000e+02 
93.695   6.07000000e+02 
93.659   5.53000000e+02 
93.623   4.96000000e+02 
93.587   5.40000000e+02 
93.551   5.56000000e+02 
93.515   5.67000000e+02 
93.479   5.59000000e+02 
93.443   5.93000000e+02 
93.407   5.78000000e+02 
93.371   6.09000000e+02 
93.335   6.52000000e+02 
93.299   6.73000000e+02 
93.263   6.68000000e+02 
93.227   6.95000000e+02 
93.191   7.18000000e+02 
93.155   6.71000000e+02 
93.120   7.40000000e+02 
93.084   8.40000000e+02 
93.048   8.35000000e+02 
93.012   8.31000000e+02 
92.976   8.89000000e+02 
92.940   9.09000000e+02 
92.904   9.66000000e+02 
92.868   1.03600000e+03 
92.832   1.08800000e+03 
92.796   1.17200000e+03 
92.760   1.18900000e+03 
92.724   1.29200000e+03 
92.688   1.39300000e+03 
92.652   1.46300000e+03 
92.616   1.54300000e+03 
92.580   1.65500000e+03 
92.545   1.77800000e+03 
92.509   1.87500000e+03 
92.473   1.92400000e+03 
92.437   2.07800000e+03 
92.401   2.27100000e+03 
92.365   2.32000000e+03 
92.329   2.49700000e+03 
92.293   2.66600000e+03 
92.257   2.75200000e+03 
92.221   2.89300000e+03 
92.185   3.11700000e+03 
92.149   3.17600000e+03 
92.113   3.37500000e+03 
92.077   3.48600000e+03 
92.041   3.62600000e+03 
92.005   3.58600000e+03 
91.970   3.72400000e+03 
91.934   3.76200000e+03 
91.898   3.76400000e+03 
91.862   3.77800000e+03 
91.826   3.72100000e+03 
91.790   3.62800000e+03 
91.754   3.47400000e+03 
91.718   3.23800000e+03 
91.682   3.18600000e+03 
91.646   3.03300000e+03 
91.610   2.82700000e+03 
91.574   2.46300000e+03 
91.538   2.38300000e+03 
91.502   2.18900000e+03 
91.466   1.99600000e+03 
91.430   1.78400000e+03 
91.395   1.66200000e+03 
91.359   1.53700000e+03 
91.323   1.41800000e+03 
91.287   1.19900000e+03 
91.251   1.14800000e+03 
91.215   9.65000000e+02 
91.179   9.87000000e+02 
91.143   8.62000000e+02 
91.107   7.81000000e+02 
91.071   7.79000000e+02 
91.035   6.53000000e+02 
90.999   6.27000000e+02 
90.963   5.70000000e+02 
90.927   5.91000000e+02 
90.891   5.62000000e+02 
90.855   5.24000000e+02 
90.820   4.56000000e+02 
90.784   4.48000000e+02 
90.748   4.40000000e+02 
90.712   3.98000000e+02 
90.676   4.19000000e+02 
90.640   3.66000000e+02 
90.604   3.49000000e+02 
90.568   3.39000000e+02 
90.532   3.11000000e+02 
90.496   3.26000000e+02 
90.460   3.17000000e+02 
90.424   3.00000000e+02 
90.388   3.50000000e+02 
90.352   3.10000000e+02 
90.316   3.16000000e+02 
90.280   3.13000000e+02 
90.245   2.89000000e+02 
90.209   3.07000000e+02 
90.173   2.81000000e+02 
90.137   3.05000000e+02 
90.101   2.70000000e+02 
90.065   2.68000000e+02 
90.029   2.86000000e+02 
89.993   2.78000000e+02 
89.957   2.67000000e+02 
89.921   2.51000000e+02 
89.885   2.61000000e+02 
89.849   2.44000000e+02 
89.813   2.65000000e+02 
89.777   2.60000000e+02 
89.741   2.52000000e+02 
89.705   2.92000000e+02 
89.670   2.20000000e+02 
89.634   2.63000000e+02 
89.598   2.44000000e+02 
89.562   2.45000000e+02 
89.526   2.44000000e+02 
89.490   2.51000000e+02 
89.454   2.22000000e+02 
89.418   2.50000000e+02 

