EXPERIMENT FILE
Version = 2

[ Experiment Parameters ]
Experiment Description= <none> 
Number_of_Regions_in_Experiment= 1 

Original_File_name= C:\alexesca\data\129Theta0.xps 
Instrument= HP ESCA West
Date= 01-29-2013
Time=  13:13:41

[ Layer Parameters ]
Layer_Type= XPS

[ Region 1 Parameters ]
Region_Description = Au 4f Dithered 94eV Center 9.2eV Width
BEcenter(eV) = 94.000000
BEwidth(eV) = 9.200000
BEstep(eV) = 0.035937
Dwell_Time(sec) = 1.000000
N_o_scans = 1  
N_o_Channels = 256  
Scan_mode = 0  (DITHERED)

[ L= 1 R= 1 ]
BEcenter= 94.000  
BEwidth= -9.164  
Excitation= 1486.600
Time_p_channel= 256.000 
Size= 256
98.582   8.93000000e+02 
98.546   9.07000000e+02 
98.510   9.02000000e+02 
98.474   8.60000000e+02 
98.438   8.80000000e+02 
98.402   9.32000000e+02 
98.366   8.81000000e+02 
98.330   8.90000000e+02 
98.295   8.75000000e+02 
98.259   9.47000000e+02 
98.223   9.33000000e+02 
98.187   9.09000000e+02 
98.151   9.34000000e+02 
98.115   9.41000000e+02 
98.079   9.10000000e+02 
98.043   9.12000000e+02 
98.007   8.81000000e+02 
97.971   9.83000000e+02 
97.935   9.61000000e+02 
97.899   9.46000000e+02 
97.863   9.72000000e+02 
97.827   9.46000000e+02 
97.791   9.67000000e+02 
97.755   9.47000000e+02 
97.720   9.75000000e+02 
97.684   9.93000000e+02 
97.648   9.81000000e+02 
97.612   9.84000000e+02 
97.576   1.03900000e+03 
97.540   1.01800000e+03 
97.504   1.00500000e+03 
97.468   1.01900000e+03 
97.432   1.08300000e+03 
97.396   1.04500000e+03 
97.360   1.12400000e+03 
97.324   1.06100000e+03 
97.288   1.11100000e+03 
97.252   1.11700000e+03 
97.216   1.16700000e+03 
97.180   1.09000000e+03 
97.145   1.15800000e+03 
97.109   1.18600000e+03 
97.073   1.26100000e+03 
97.037   1.28800000e+03 
97.001   1.36000000e+03 
96.965   1.34300000e+03 
96.929   1.37800000e+03 
96.893   1.51800000e+03 
96.857   1.46300000e+03 
96.821   1.52500000e+03 
96.785   1.62100000e+03 
96.749   1.67300000e+03 
96.713   1.71900000e+03 
96.677   1.82100000e+03 
96.641   1.86600000e+03 
96.605   1.99900000e+03 
96.570   1.96100000e+03 
96.534   2.17400000e+03 
96.498   2.09700000e+03 
96.462   2.23700000e+03 
96.426   2.38300000e+03 
96.390   2.39900000e+03 
96.354   2.71300000e+03 
96.318   2.89600000e+03 
96.282   2.87000000e+03 
96.246   2.98800000e+03 
96.210   3.19600000e+03 
96.174   3.34800000e+03 
96.138   3.52300000e+03 
96.102   3.60300000e+03 
96.066   3.94800000e+03 
96.030   3.99100000e+03 
95.995   4.13000000e+03 
95.959   4.30100000e+03 
95.923   4.53600000e+03 
95.887   4.72800000e+03 
95.851   4.87900000e+03 
95.815   5.06800000e+03 
95.779   5.18500000e+03 
95.743   5.24500000e+03 
95.707   5.33800000e+03 
95.671   5.42500000e+03 
95.635   5.40000000e+03 
95.599   5.43600000e+03 
95.563   5.40400000e+03 
95.527   5.34100000e+03 
95.491   5.18600000e+03 
95.455   5.14500000e+03 
95.420   4.97000000e+03 
95.384   4.81900000e+03 
95.348   4.66800000e+03 
95.312   4.37400000e+03 
95.276   4.16900000e+03 
95.240   4.00400000e+03 
95.204   3.75200000e+03 
95.168   3.48300000e+03 
95.132   3.32600000e+03 
95.096   3.05700000e+03 
95.060   2.85100000e+03 
95.024   2.56900000e+03 
94.988   2.49100000e+03 
94.952   2.25300000e+03 
94.916   2.06100000e+03 
94.880   1.91400000e+03 
94.845   1.87900000e+03 
94.809   1.70700000e+03 
94.773   1.62000000e+03 
94.737   1.46500000e+03 
94.701   1.47800000e+03 
94.665   1.35600000e+03 
94.629   1.24600000e+03 
94.593   1.26100000e+03 
94.557   1.20400000e+03 
94.521   1.15500000e+03 
94.485   1.14500000e+03 
94.449   1.09800000e+03 
94.413   1.09600000e+03 
94.377   1.11500000e+03 
94.341   1.04500000e+03 
94.305   1.02900000e+03 
94.270   9.31000000e+02 
94.234   9.78000000e+02 
94.198   9.97000000e+02 
94.162   1.01600000e+03 
94.126   8.98000000e+02 
94.090   9.13000000e+02 
94.054   9.52000000e+02 
94.018   9.43000000e+02 
93.982   9.60000000e+02 
93.946   9.66000000e+02 
93.910   9.44000000e+02 
93.874   9.78000000e+02 
93.838   9.87000000e+02 
93.802   1.01600000e+03 
93.766   1.01300000e+03 
93.730   9.30000000e+02 
93.695   9.94000000e+02 
93.659   1.02300000e+03 
93.623   1.03400000e+03 
93.587   1.08000000e+03 
93.551   1.05800000e+03 
93.515   1.17100000e+03 
93.479   1.13400000e+03 
93.443   1.17400000e+03 
93.407   1.16800000e+03 
93.371   1.22800000e+03 
93.335   1.23300000e+03 
93.299   1.33500000e+03 
93.263   1.32000000e+03 
93.227   1.43300000e+03 
93.191   1.49700000e+03 
93.155   1.49300000e+03 
93.120   1.59900000e+03 
93.084   1.70200000e+03 
93.048   1.72000000e+03 
93.012   1.77300000e+03 
92.976   1.93200000e+03 
92.940   1.98300000e+03 
92.904   2.16700000e+03 
92.868   2.16700000e+03 
92.832   2.36800000e+03 
92.796   2.41600000e+03 
92.760   2.52700000e+03 
92.724   2.71400000e+03 
92.688   2.92000000e+03 
92.652   3.05200000e+03 
92.616   3.13800000e+03 
92.580   3.27400000e+03 
92.545   3.71500000e+03 
92.509   3.81500000e+03 
92.473   3.97600000e+03 
92.437   4.14100000e+03 
92.401   4.34800000e+03 
92.365   4.65200000e+03 
92.329   4.69900000e+03 
92.293   5.11900000e+03 
92.257   5.32200000e+03 
92.221   5.44900000e+03 
92.185   5.66000000e+03 
92.149   5.91400000e+03 
92.113   6.11400000e+03 
92.077   6.25500000e+03 
92.041   6.44900000e+03 
92.005   6.44700000e+03 
91.970   6.53700000e+03 
91.934   6.82300000e+03 
91.898   6.60800000e+03 
91.862   6.53900000e+03 
91.826   6.54600000e+03 
91.790   6.49600000e+03 
91.754   6.35500000e+03 
91.718   5.98700000e+03 
91.682   5.75800000e+03 
91.646   5.54600000e+03 
91.610   5.25200000e+03 
91.574   4.94900000e+03 
91.538   4.52000000e+03 
91.502   4.37000000e+03 
91.466   4.00600000e+03 
91.430   3.65100000e+03 
91.395   3.25700000e+03 
91.359   3.07400000e+03 
91.323   2.85300000e+03 
91.287   2.52500000e+03 
91.251   2.33600000e+03 
91.215   2.08300000e+03 
91.179   1.93800000e+03 
91.143   1.73000000e+03 
91.107   1.58000000e+03 
91.071   1.40300000e+03 
91.035   1.30400000e+03 
90.999   1.19500000e+03 
90.963   1.16900000e+03 
90.927   1.10400000e+03 
90.891   9.44000000e+02 
90.855   9.48000000e+02 
90.820   9.24000000e+02 
90.784   8.26000000e+02 
90.748   8.21000000e+02 
90.712   7.28000000e+02 
90.676   7.13000000e+02 
90.640   6.96000000e+02 
90.604   6.49000000e+02 
90.568   6.42000000e+02 
90.532   6.16000000e+02 
90.496   5.88000000e+02 
90.460   5.41000000e+02 
90.424   5.94000000e+02 
90.388   5.65000000e+02 
90.352   5.37000000e+02 
90.316   5.38000000e+02 
90.280   5.21000000e+02 
90.245   5.07000000e+02 
90.209   5.00000000e+02 
90.173   4.66000000e+02 
90.137   4.65000000e+02 
90.101   4.89000000e+02 
90.065   4.52000000e+02 
90.029   4.49000000e+02 
89.993   4.60000000e+02 
89.957   4.50000000e+02 
89.921   4.61000000e+02 
89.885   4.69000000e+02 
89.849   4.28000000e+02 
89.813   4.57000000e+02 
89.777   4.33000000e+02 
89.741   3.90000000e+02 
89.705   4.19000000e+02 
89.670   4.06000000e+02 
89.634   4.39000000e+02 
89.598   4.58000000e+02 
89.562   4.56000000e+02 
89.526   4.14000000e+02 
89.490   4.24000000e+02 
89.454   4.05000000e+02 
89.418   3.88000000e+02 

