EXPERIMENT FILE
Version = 2

[ Experiment Parameters ]
Experiment Description= <none> 
Number_of_Regions_in_Experiment= 1 

Original_File_name= C:\alexesca\data\129ThetaNeg10.xps 
Instrument= HP ESCA West
Date= 01-29-2013
Time=  12:54:04

[ Layer Parameters ]
Layer_Type= XPS

[ Region 1 Parameters ]
Region_Description = Au 4f Dithered 94eV Center 9.2eV Width
BEcenter(eV) = 94.000000
BEwidth(eV) = 9.200000
BEstep(eV) = 0.035937
Dwell_Time(sec) = 1.000000
N_o_scans = 1  
N_o_Channels = 256  
Scan_mode = 0  (DITHERED)

[ L= 1 R= 1 ]
BEcenter= 94.000  
BEwidth= -9.164  
Excitation= 1486.600
Time_p_channel= 256.000 
Size= 256
98.582   6.35000000e+02 
98.546   6.01000000e+02 
98.510   6.19000000e+02 
98.474   6.11000000e+02 
98.438   6.27000000e+02 
98.402   6.21000000e+02 
98.366   6.09000000e+02 
98.330   6.65000000e+02 
98.295   6.34000000e+02 
98.259   6.16000000e+02 
98.223   6.08000000e+02 
98.187   6.29000000e+02 
98.151   6.26000000e+02 
98.115   6.46000000e+02 
98.079   6.58000000e+02 
98.043   6.36000000e+02 
98.007   6.44000000e+02 
97.971   6.23000000e+02 
97.935   6.90000000e+02 
97.899   6.28000000e+02 
97.863   6.98000000e+02 
97.827   6.22000000e+02 
97.791   6.63000000e+02 
97.755   6.79000000e+02 
97.720   6.60000000e+02 
97.684   6.49000000e+02 
97.648   6.89000000e+02 
97.612   6.72000000e+02 
97.576   6.61000000e+02 
97.540   7.04000000e+02 
97.504   6.94000000e+02 
97.468   6.70000000e+02 
97.432   6.92000000e+02 
97.396   7.33000000e+02 
97.360   6.74000000e+02 
97.324   6.89000000e+02 
97.288   7.58000000e+02 
97.252   8.01000000e+02 
97.216   7.35000000e+02 
97.180   7.75000000e+02 
97.145   7.92000000e+02 
97.109   8.18000000e+02 
97.073   7.91000000e+02 
97.037   8.77000000e+02 
97.001   8.45000000e+02 
96.965   8.70000000e+02 
96.929   9.10000000e+02 
96.893   9.22000000e+02 
96.857   1.00400000e+03 
96.821   9.87000000e+02 
96.785   1.01500000e+03 
96.749   1.12700000e+03 
96.713   1.16000000e+03 
96.677   1.13500000e+03 
96.641   1.16800000e+03 
96.605   1.23400000e+03 
96.570   1.32700000e+03 
96.534   1.28700000e+03 
96.498   1.44100000e+03 
96.462   1.51000000e+03 
96.426   1.59300000e+03 
96.390   1.62200000e+03 
96.354   1.68800000e+03 
96.318   1.84100000e+03 
96.282   1.90500000e+03 
96.246   2.04700000e+03 
96.210   2.15600000e+03 
96.174   2.22500000e+03 
96.138   2.31500000e+03 
96.102   2.59300000e+03 
96.066   2.57100000e+03 
96.030   2.70600000e+03 
95.995   2.88200000e+03 
95.959   2.93000000e+03 
95.923   3.17400000e+03 
95.887   3.21600000e+03 
95.851   3.32900000e+03 
95.815   3.53900000e+03 
95.779   3.47200000e+03 
95.743   3.60500000e+03 
95.707   3.74100000e+03 
95.671   3.81900000e+03 
95.635   3.86900000e+03 
95.599   3.86700000e+03 
95.563   3.78300000e+03 
95.527   3.77000000e+03 
95.491   3.69600000e+03 
95.455   3.47800000e+03 
95.420   3.45100000e+03 
95.384   3.30200000e+03 
95.348   3.05900000e+03 
95.312   3.02600000e+03 
95.276   2.80500000e+03 
95.240   2.58900000e+03 
95.204   2.50100000e+03 
95.168   2.24100000e+03 
95.132   2.05000000e+03 
95.096   1.96400000e+03 
95.060   1.76600000e+03 
95.024   1.65900000e+03 
94.988   1.63100000e+03 
94.952   1.49300000e+03 
94.916   1.33600000e+03 
94.880   1.26600000e+03 
94.845   1.13700000e+03 
94.809   1.08900000e+03 
94.773   1.07100000e+03 
94.737   9.74000000e+02 
94.701   9.36000000e+02 
94.665   8.79000000e+02 
94.629   9.11000000e+02 
94.593   8.69000000e+02 
94.557   7.67000000e+02 
94.521   7.33000000e+02 
94.485   7.81000000e+02 
94.449   7.49000000e+02 
94.413   7.25000000e+02 
94.377   7.09000000e+02 
94.341   7.08000000e+02 
94.305   7.07000000e+02 
94.270   6.59000000e+02 
94.234   6.50000000e+02 
94.198   6.53000000e+02 
94.162   6.08000000e+02 
94.126   6.68000000e+02 
94.090   6.61000000e+02 
94.054   6.45000000e+02 
94.018   6.11000000e+02 
93.982   6.58000000e+02 
93.946   6.03000000e+02 
93.910   6.66000000e+02 
93.874   6.71000000e+02 
93.838   6.90000000e+02 
93.802   6.63000000e+02 
93.766   6.24000000e+02 
93.730   6.61000000e+02 
93.695   6.69000000e+02 
93.659   6.42000000e+02 
93.623   6.90000000e+02 
93.587   6.96000000e+02 
93.551   6.73000000e+02 
93.515   7.12000000e+02 
93.479   7.29000000e+02 
93.443   7.25000000e+02 
93.407   7.44000000e+02 
93.371   7.66000000e+02 
93.335   8.32000000e+02 
93.299   8.59000000e+02 
93.263   8.75000000e+02 
93.227   8.82000000e+02 
93.191   9.28000000e+02 
93.155   9.77000000e+02 
93.120   9.41000000e+02 
93.084   1.05100000e+03 
93.048   1.07200000e+03 
93.012   1.10300000e+03 
92.976   1.22300000e+03 
92.940   1.27600000e+03 
92.904   1.30700000e+03 
92.868   1.37900000e+03 
92.832   1.45600000e+03 
92.796   1.52400000e+03 
92.760   1.63700000e+03 
92.724   1.72100000e+03 
92.688   1.88000000e+03 
92.652   1.92000000e+03 
92.616   2.09100000e+03 
92.580   2.13600000e+03 
92.545   2.29000000e+03 
92.509   2.36200000e+03 
92.473   2.49700000e+03 
92.437   2.69600000e+03 
92.401   2.83600000e+03 
92.365   3.02400000e+03 
92.329   3.23100000e+03 
92.293   3.38900000e+03 
92.257   3.55500000e+03 
92.221   3.67500000e+03 
92.185   3.96900000e+03 
92.149   4.16800000e+03 
92.113   4.19000000e+03 
92.077   4.35400000e+03 
92.041   4.51100000e+03 
92.005   4.51500000e+03 
91.970   4.59600000e+03 
91.934   4.79900000e+03 
91.898   4.66500000e+03 
91.862   4.66700000e+03 
91.826   4.54900000e+03 
91.790   4.48300000e+03 
91.754   4.27900000e+03 
91.718   4.23700000e+03 
91.682   4.06500000e+03 
91.646   3.85900000e+03 
91.610   3.62700000e+03 
91.574   3.39500000e+03 
91.538   3.03400000e+03 
91.502   2.69200000e+03 
91.466   2.53600000e+03 
91.430   2.31100000e+03 
91.395   2.11000000e+03 
91.359   1.94800000e+03 
91.323   1.73100000e+03 
91.287   1.55400000e+03 
91.251   1.48200000e+03 
91.215   1.32200000e+03 
91.179   1.25000000e+03 
91.143   1.09000000e+03 
91.107   9.84000000e+02 
91.071   9.72000000e+02 
91.035   8.68000000e+02 
90.999   7.65000000e+02 
90.963   7.32000000e+02 
90.927   6.73000000e+02 
90.891   6.35000000e+02 
90.855   6.76000000e+02 
90.820   5.74000000e+02 
90.784   5.56000000e+02 
90.748   5.32000000e+02 
90.712   4.88000000e+02 
90.676   5.40000000e+02 
90.640   4.99000000e+02 
90.604   4.62000000e+02 
90.568   4.39000000e+02 
90.532   4.60000000e+02 
90.496   4.19000000e+02 
90.460   4.02000000e+02 
90.424   3.63000000e+02 
90.388   4.04000000e+02 
90.352   3.93000000e+02 
90.316   3.84000000e+02 
90.280   3.69000000e+02 
90.245   3.69000000e+02 
90.209   3.74000000e+02 
90.173   3.29000000e+02 
90.137   3.26000000e+02 
90.101   3.39000000e+02 
90.065   3.27000000e+02 
90.029   3.33000000e+02 
89.993   3.01000000e+02 
89.957   3.39000000e+02 
89.921   3.33000000e+02 
89.885   3.27000000e+02 
89.849   2.84000000e+02 
89.813   2.86000000e+02 
89.777   2.91000000e+02 
89.741   3.14000000e+02 
89.705   3.05000000e+02 
89.670   3.11000000e+02 
89.634   3.12000000e+02 
89.598   3.05000000e+02 
89.562   2.83000000e+02 
89.526   3.24000000e+02 
89.490   3.04000000e+02 
89.454   2.84000000e+02 
89.418   2.78000000e+02 

