EXPERIMENT FILE
Version = 2

[ Experiment Parameters ]
Experiment Description= <none> 
Number_of_Regions_in_Experiment= 1 

Original_File_name= C:\alexesca\data\129ThetaNeg20.xps 
Instrument= HP ESCA West
Date= 01-29-2013
Time=  12:31:12

[ Layer Parameters ]
Layer_Type= XPS

[ Region 1 Parameters ]
Region_Description = Au 4f Dithered 94eV Center 9.2eV Width
BEcenter(eV) = 94.000000
BEwidth(eV) = 9.200000
BEstep(eV) = 0.035937
Dwell_Time(sec) = 1.000000
N_o_scans = 1  
N_o_Channels = 256  
Scan_mode = 0  (DITHERED)

[ L= 1 R= 1 ]
BEcenter= 94.000  
BEwidth= -9.164  
Excitation= 1486.600
Time_p_channel= 256.000 
Size= 256
98.582   3.57000000e+02 
98.546   4.02000000e+02 
98.510   4.17000000e+02 
98.474   3.91000000e+02 
98.438   3.93000000e+02 
98.402   4.09000000e+02 
98.366   4.20000000e+02 
98.330   4.08000000e+02 
98.295   4.36000000e+02 
98.259   3.79000000e+02 
98.223   3.92000000e+02 
98.187   4.08000000e+02 
98.151   3.86000000e+02 
98.115   3.98000000e+02 
98.079   3.92000000e+02 
98.043   3.76000000e+02 
98.007   3.44000000e+02 
97.971   3.71000000e+02 
97.935   4.30000000e+02 
97.899   4.05000000e+02 
97.863   4.19000000e+02 
97.827   3.87000000e+02 
97.791   4.47000000e+02 
97.755   4.24000000e+02 
97.720   4.50000000e+02 
97.684   3.75000000e+02 
97.648   3.94000000e+02 
97.612   4.17000000e+02 
97.576   4.35000000e+02 
97.540   4.26000000e+02 
97.504   4.06000000e+02 
97.468   4.49000000e+02 
97.432   4.16000000e+02 
97.396   4.19000000e+02 
97.360   4.46000000e+02 
97.324   4.69000000e+02 
97.288   4.03000000e+02 
97.252   4.61000000e+02 
97.216   4.46000000e+02 
97.180   4.70000000e+02 
97.145   4.47000000e+02 
97.109   4.67000000e+02 
97.073   4.74000000e+02 
97.037   5.02000000e+02 
97.001   5.06000000e+02 
96.965   5.70000000e+02 
96.929   5.28000000e+02 
96.893   5.61000000e+02 
96.857   6.11000000e+02 
96.821   5.80000000e+02 
96.785   6.04000000e+02 
96.749   6.11000000e+02 
96.713   6.43000000e+02 
96.677   6.79000000e+02 
96.641   7.53000000e+02 
96.605   6.91000000e+02 
96.570   7.63000000e+02 
96.534   7.45000000e+02 
96.498   8.41000000e+02 
96.462   8.77000000e+02 
96.426   8.99000000e+02 
96.390   9.51000000e+02 
96.354   1.04700000e+03 
96.318   1.07900000e+03 
96.282   1.10600000e+03 
96.246   1.17800000e+03 
96.210   1.25200000e+03 
96.174   1.33400000e+03 
96.138   1.43300000e+03 
96.102   1.48400000e+03 
96.066   1.58800000e+03 
96.030   1.54900000e+03 
95.995   1.73800000e+03 
95.959   1.76500000e+03 
95.923   1.83500000e+03 
95.887   1.88000000e+03 
95.851   2.06500000e+03 
95.815   2.12300000e+03 
95.779   2.11500000e+03 
95.743   2.09000000e+03 
95.707   2.26800000e+03 
95.671   2.20400000e+03 
95.635   2.23700000e+03 
95.599   2.23000000e+03 
95.563   2.24100000e+03 
95.527   2.19900000e+03 
95.491   2.11700000e+03 
95.455   2.04200000e+03 
95.420   1.89100000e+03 
95.384   1.90900000e+03 
95.348   1.78000000e+03 
95.312   1.65800000e+03 
95.276   1.63000000e+03 
95.240   1.52400000e+03 
95.204   1.39000000e+03 
95.168   1.33000000e+03 
95.132   1.19000000e+03 
95.096   1.09400000e+03 
95.060   1.05100000e+03 
95.024   9.28000000e+02 
94.988   9.17000000e+02 
94.952   8.29000000e+02 
94.916   7.65000000e+02 
94.880   7.08000000e+02 
94.845   6.58000000e+02 
94.809   6.76000000e+02 
94.773   6.21000000e+02 
94.737   5.63000000e+02 
94.701   5.53000000e+02 
94.665   5.34000000e+02 
94.629   5.08000000e+02 
94.593   4.83000000e+02 
94.557   4.65000000e+02 
94.521   4.69000000e+02 
94.485   4.52000000e+02 
94.449   4.52000000e+02 
94.413   4.57000000e+02 
94.377   4.26000000e+02 
94.341   3.93000000e+02 
94.305   3.94000000e+02 
94.270   3.99000000e+02 
94.234   3.97000000e+02 
94.198   4.14000000e+02 
94.162   4.21000000e+02 
94.126   3.64000000e+02 
94.090   3.88000000e+02 
94.054   3.84000000e+02 
94.018   3.91000000e+02 
93.982   4.01000000e+02 
93.946   3.39000000e+02 
93.910   4.28000000e+02 
93.874   3.95000000e+02 
93.838   3.92000000e+02 
93.802   3.67000000e+02 
93.766   4.17000000e+02 
93.730   3.95000000e+02 
93.695   3.90000000e+02 
93.659   3.99000000e+02 
93.623   4.05000000e+02 
93.587   4.07000000e+02 
93.551   4.36000000e+02 
93.515   4.30000000e+02 
93.479   4.13000000e+02 
93.443   4.64000000e+02 
93.407   4.45000000e+02 
93.371   4.38000000e+02 
93.335   4.87000000e+02 
93.299   5.01000000e+02 
93.263   4.75000000e+02 
93.227   4.76000000e+02 
93.191   5.31000000e+02 
93.155   5.36000000e+02 
93.120   5.62000000e+02 
93.084   6.17000000e+02 
93.048   6.13000000e+02 
93.012   6.66000000e+02 
92.976   6.69000000e+02 
92.940   7.48000000e+02 
92.904   7.33000000e+02 
92.868   8.00000000e+02 
92.832   8.02000000e+02 
92.796   8.47000000e+02 
92.760   9.12000000e+02 
92.724   1.01900000e+03 
92.688   1.04500000e+03 
92.652   1.16500000e+03 
92.616   1.20100000e+03 
92.580   1.21200000e+03 
92.545   1.39100000e+03 
92.509   1.45800000e+03 
92.473   1.45600000e+03 
92.437   1.63500000e+03 
92.401   1.65300000e+03 
92.365   1.74400000e+03 
92.329   1.92500000e+03 
92.293   2.06600000e+03 
92.257   2.16200000e+03 
92.221   2.25400000e+03 
92.185   2.41800000e+03 
92.149   2.40900000e+03 
92.113   2.45800000e+03 
92.077   2.59800000e+03 
92.041   2.61700000e+03 
92.005   2.71900000e+03 
91.970   2.74100000e+03 
91.934   2.78600000e+03 
91.898   2.63900000e+03 
91.862   2.74600000e+03 
91.826   2.70100000e+03 
91.790   2.62200000e+03 
91.754   2.54200000e+03 
91.718   2.35000000e+03 
91.682   2.30100000e+03 
91.646   2.05700000e+03 
91.610   1.95000000e+03 
91.574   1.85900000e+03 
91.538   1.64500000e+03 
91.502   1.53000000e+03 
91.466   1.44000000e+03 
91.430   1.28200000e+03 
91.395   1.22700000e+03 
91.359   1.11800000e+03 
91.323   1.00000000e+03 
91.287   9.19000000e+02 
91.251   7.96000000e+02 
91.215   7.41000000e+02 
91.179   6.55000000e+02 
91.143   6.19000000e+02 
91.107   5.63000000e+02 
91.071   5.20000000e+02 
91.035   4.94000000e+02 
90.999   4.40000000e+02 
90.963   4.58000000e+02 
90.927   3.97000000e+02 
90.891   4.45000000e+02 
90.855   3.65000000e+02 
90.820   3.18000000e+02 
90.784   3.39000000e+02 
90.748   3.31000000e+02 
90.712   3.08000000e+02 
90.676   2.78000000e+02 
90.640   2.73000000e+02 
90.604   2.88000000e+02 
90.568   2.56000000e+02 
90.532   2.43000000e+02 
90.496   2.65000000e+02 
90.460   2.46000000e+02 
90.424   2.13000000e+02 
90.388   2.61000000e+02 
90.352   2.59000000e+02 
90.316   2.61000000e+02 
90.280   2.09000000e+02 
90.245   2.13000000e+02 
90.209   2.08000000e+02 
90.173   2.36000000e+02 
90.137   1.99000000e+02 
90.101   2.01000000e+02 
90.065   2.15000000e+02 
90.029   2.03000000e+02 
89.993   1.79000000e+02 
89.957   2.17000000e+02 
89.921   2.01000000e+02 
89.885   2.11000000e+02 
89.849   1.99000000e+02 
89.813   2.06000000e+02 
89.777   2.03000000e+02 
89.741   1.90000000e+02 
89.705   2.18000000e+02 
89.670   2.00000000e+02 
89.634   1.74000000e+02 
89.598   2.11000000e+02 
89.562   1.83000000e+02 
89.526   2.01000000e+02 
89.490   1.93000000e+02 
89.454   2.09000000e+02 
89.418   1.87000000e+02 

