EXPERIMENT FILE
Version = 2

[ Experiment Parameters ]
Experiment Description= <none> 
Number_of_Regions_in_Experiment= 1 

Original_File_name= C:\alexesca\data\FirstAuSpectra.xps 
Instrument= HP ESCA West
Date= 07-02-2012
Time=  17:24:02

[ Layer Parameters ]
Layer_Type= XPS

[ Region 1 Parameters ]
Region_Description = Au Dithered Scan Test              
BEcenter(eV) = 91.000000
BEwidth(eV) = 10.000000
BEstep(eV) = 0.035938
Dwell_Time(sec) = 1.000000
N_o_scans = 1  
N_o_Channels = 278  
Scan_mode = 0  (DITHERED)

[ L= 1 R= 1 ]
BEcenter= 91.000  
BEwidth= -9.955  
Excitation= 1486.600
Time_p_channel= 256.000 
Size= 278
95.977   4.07000000e+02 
95.941   3.85000000e+02 
95.905   4.02000000e+02 
95.870   3.97000000e+02 
95.834   4.06000000e+02 
95.798   4.09000000e+02 
95.762   4.11000000e+02 
95.726   4.30000000e+02 
95.690   4.41000000e+02 
95.654   4.90000000e+02 
95.618   4.48000000e+02 
95.582   4.65000000e+02 
95.546   4.86000000e+02 
95.510   4.81000000e+02 
95.474   5.09000000e+02 
95.438   4.99000000e+02 
95.402   5.07000000e+02 
95.366   5.45000000e+02 
95.330   5.09000000e+02 
95.295   5.54000000e+02 
95.259   5.88000000e+02 
95.223   5.89000000e+02 
95.187   6.38000000e+02 
95.151   6.29000000e+02 
95.115   6.54000000e+02 
95.079   6.76000000e+02 
95.043   6.78000000e+02 
95.007   7.41000000e+02 
94.971   7.83000000e+02 
94.935   7.48000000e+02 
94.899   8.29000000e+02 
94.863   8.61000000e+02 
94.827   8.44000000e+02 
94.791   9.26000000e+02 
94.755   9.78000000e+02 
94.720   9.73000000e+02 
94.684   1.03200000e+03 
94.648   1.08200000e+03 
94.612   1.11700000e+03 
94.576   1.19100000e+03 
94.540   1.25200000e+03 
94.504   1.25800000e+03 
94.468   1.35900000e+03 
94.432   1.45000000e+03 
94.396   1.45100000e+03 
94.360   1.55900000e+03 
94.324   1.60800000e+03 
94.288   1.62700000e+03 
94.252   1.81200000e+03 
94.216   1.75500000e+03 
94.180   1.86300000e+03 
94.145   1.85400000e+03 
94.109   1.98300000e+03 
94.073   2.05700000e+03 
94.037   2.11300000e+03 
94.001   2.11000000e+03 
93.965   2.17600000e+03 
93.929   2.22500000e+03 
93.893   2.25400000e+03 
93.857   2.07300000e+03 
93.821   2.13200000e+03 
93.785   2.16200000e+03 
93.749   2.06500000e+03 
93.713   2.00800000e+03 
93.677   1.79500000e+03 
93.641   1.90000000e+03 
93.605   1.75100000e+03 
93.570   1.61000000e+03 
93.534   1.51700000e+03 
93.498   1.38900000e+03 
93.462   1.35400000e+03 
93.426   1.29500000e+03 
93.390   1.19000000e+03 
93.354   1.10400000e+03 
93.318   9.57000000e+02 
93.282   9.19000000e+02 
93.246   8.79000000e+02 
93.210   8.00000000e+02 
93.174   6.82000000e+02 
93.138   7.20000000e+02 
93.102   6.55000000e+02 
93.066   5.56000000e+02 
93.030   5.91000000e+02 
92.995   5.80000000e+02 
92.959   5.28000000e+02 
92.923   4.95000000e+02 
92.887   5.00000000e+02 
92.851   4.72000000e+02 
92.815   4.60000000e+02 
92.779   4.28000000e+02 
92.743   4.38000000e+02 
92.707   4.26000000e+02 
92.671   4.01000000e+02 
92.635   4.25000000e+02 
92.599   3.92000000e+02 
92.563   3.90000000e+02 
92.527   3.85000000e+02 
92.491   3.68000000e+02 
92.455   3.93000000e+02 
92.420   3.74000000e+02 
92.384   4.04000000e+02 
92.348   3.74000000e+02 
92.312   3.87000000e+02 
92.276   3.74000000e+02 
92.240   3.56000000e+02 
92.204   3.79000000e+02 
92.168   3.83000000e+02 
92.132   3.70000000e+02 
92.096   3.85000000e+02 
92.060   4.17000000e+02 
92.024   4.11000000e+02 
91.988   4.21000000e+02 
91.952   4.16000000e+02 
91.916   4.14000000e+02 
91.880   4.29000000e+02 
91.845   4.77000000e+02 
91.809   4.59000000e+02 
91.773   4.52000000e+02 
91.737   5.19000000e+02 
91.701   4.90000000e+02 
91.665   5.07000000e+02 
91.629   5.49000000e+02 
91.593   5.12000000e+02 
91.557   5.19000000e+02 
91.521   5.75000000e+02 
91.485   6.25000000e+02 
91.449   5.67000000e+02 
91.413   6.54000000e+02 
91.377   6.66000000e+02 
91.341   6.53000000e+02 
91.305   7.28000000e+02 
91.270   7.09000000e+02 
91.234   7.26000000e+02 
91.198   7.38000000e+02 
91.162   8.35000000e+02 
91.126   8.28000000e+02 
91.090   9.26000000e+02 
91.054   9.13000000e+02 
91.018   1.04800000e+03 
90.982   9.79000000e+02 
90.946   1.06400000e+03 
90.910   1.12600000e+03 
90.874   1.19300000e+03 
90.838   1.32800000e+03 
90.802   1.30000000e+03 
90.766   1.39200000e+03 
90.730   1.46300000e+03 
90.695   1.52600000e+03 
90.659   1.55800000e+03 
90.623   1.61400000e+03 
90.587   1.63400000e+03 
90.551   1.82000000e+03 
90.515   1.92500000e+03 
90.479   1.93400000e+03 
90.443   2.04000000e+03 
90.407   2.20100000e+03 
90.371   2.24100000e+03 
90.335   2.28200000e+03 
90.299   2.47300000e+03 
90.263   2.55700000e+03 
90.227   2.48200000e+03 
90.191   2.65300000e+03 
90.155   2.63300000e+03 
90.120   2.73800000e+03 
90.084   2.76700000e+03 
90.048   2.65100000e+03 
90.012   2.63000000e+03 
89.976   2.62400000e+03 
89.940   2.42100000e+03 
89.904   2.39600000e+03 
89.868   2.35600000e+03 
89.832   2.23500000e+03 
89.796   2.02900000e+03 
89.760   1.86900000e+03 
89.724   1.65900000e+03 
89.688   1.59200000e+03 
89.652   1.38200000e+03 
89.616   1.38400000e+03 
89.580   1.13400000e+03 
89.545   1.00800000e+03 
89.509   9.87000000e+02 
89.473   8.25000000e+02 
89.437   7.68000000e+02 
89.401   7.02000000e+02 
89.365   6.35000000e+02 
89.329   5.07000000e+02 
89.293   5.07000000e+02 
89.257   4.49000000e+02 
89.221   4.71000000e+02 
89.185   4.17000000e+02 
89.149   3.58000000e+02 
89.113   3.35000000e+02 
89.077   3.56000000e+02 
89.041   2.86000000e+02 
89.005   2.91000000e+02 
88.970   2.75000000e+02 
88.934   2.78000000e+02 
88.898   2.73000000e+02 
88.862   2.45000000e+02 
88.826   2.64000000e+02 
88.790   2.23000000e+02 
88.754   2.66000000e+02 
88.718   2.24000000e+02 
88.682   2.09000000e+02 
88.646   1.94000000e+02 
88.610   1.69000000e+02 
88.574   2.08000000e+02 
88.538   1.80000000e+02 
88.502   1.99000000e+02 
88.466   1.72000000e+02 
88.430   1.60000000e+02 
88.395   2.02000000e+02 
88.359   1.66000000e+02 
88.323   2.01000000e+02 
88.287   1.78000000e+02 
88.251   1.45000000e+02 
88.215   1.58000000e+02 
88.179   1.60000000e+02 
88.143   1.47000000e+02 
88.107   1.64000000e+02 
88.071   1.68000000e+02 
88.035   1.48000000e+02 
87.999   1.48000000e+02 
87.963   1.53000000e+02 
87.927   1.70000000e+02 
87.891   1.56000000e+02 
87.855   1.53000000e+02 
87.820   1.55000000e+02 
87.784   1.37000000e+02 
87.748   1.33000000e+02 
87.712   1.35000000e+02 
87.676   1.17000000e+02 
87.640   1.13000000e+02 
87.604   1.37000000e+02 
87.568   1.38000000e+02 
87.532   1.18000000e+02 
87.496   1.39000000e+02 
87.460   1.23000000e+02 
87.424   1.25000000e+02 
87.388   1.40000000e+02 
87.352   1.49000000e+02 
87.316   1.15000000e+02 
87.280   1.19000000e+02 
87.245   1.25000000e+02 
87.209   1.29000000e+02 
87.173   1.19000000e+02 
87.137   1.23000000e+02 
87.101   1.21000000e+02 
87.065   1.18000000e+02 
87.029   1.26000000e+02 
86.993   1.12000000e+02 
86.957   1.37000000e+02 
86.921   1.06000000e+02 
86.885   1.07000000e+02 
86.849   1.37000000e+02 
86.813   1.31000000e+02 
86.777   1.03000000e+02 
86.741   1.07000000e+02 
86.705   1.35000000e+02 
86.670   1.20000000e+02 
86.634   1.31000000e+02 
86.598   1.32000000e+02 
86.562   1.38000000e+02 
86.526   1.26000000e+02 
86.490   1.16000000e+02 
86.454   1.23000000e+02 
86.418   1.07000000e+02 
86.382   1.08000000e+02 
86.346   1.27000000e+02 
86.310   1.10000000e+02 
86.274   1.11000000e+02 
86.238   9.90000000e+01 
86.202   1.21000000e+02 
86.166   1.24000000e+02 
86.130   1.22000000e+02 
86.095   1.10000000e+02 
86.059   9.60000000e+01 
86.023   1.25000000e+02 

