[ Experiment Parameters ]
Experiment Description= <none> 
Number_of_Regions_in_Experiment= 1 

Original_File_name= c:\alexesca\data\97071003.xps 
Instrument= ESCA-West
Date= 07-10-1997
Time=  08:01:45

[ Region 1 Parameters ]
Region_Description = au 4f dithered                     
BEcenter(eV) = 85.000000
BEwidth(eV) = 8.000000
BEstep(eV) = 0.060938
Dwell_Time(sec) = 0.500000
N_o_scans = 1  
N_o_Channels = 131  
Excitation_Energy = 0.000000  
Scan_mode = 0  (DITHERED)

[ Region 1 Curve ]
BEcenter= 85.000  
BEwidth= -7.902  
Excitation= 1486.600
Time_p_channel= 384.000 
Size= 131
88.951   1.91000000e+03 
88.890   1.93600000e+03 
88.830   1.95100000e+03 
88.769   1.95600000e+03 
88.708   2.03500000e+03 
88.647   2.05300000e+03 
88.586   1.99000000e+03 
88.526   2.06400000e+03 
88.465   2.03700000e+03 
88.404   2.03300000e+03 
88.343   2.00500000e+03 
88.283   1.94500000e+03 
88.222   1.96900000e+03 
88.161   2.03200000e+03 
88.100   1.92500000e+03 
88.039   1.96100000e+03 
87.979   1.96000000e+03 
87.918   2.01900000e+03 
87.857   2.03300000e+03 
87.796   2.09600000e+03 
87.735   2.04400000e+03 
87.675   1.95900000e+03 
87.614   2.03500000e+03 
87.553   2.02700000e+03 
87.492   2.15400000e+03 
87.431   2.13800000e+03 
87.371   2.20200000e+03 
87.310   2.06600000e+03 
87.249   2.07700000e+03 
87.188   2.03800000e+03 
87.128   2.03400000e+03 
87.067   2.05600000e+03 
87.006   2.02700000e+03 
86.945   1.99300000e+03 
86.884   2.03900000e+03 
86.824   2.03100000e+03 
86.763   1.96300000e+03 
86.702   1.95300000e+03 
86.641   1.92100000e+03 
86.580   1.87100000e+03 
86.520   1.73600000e+03 
86.459   1.59600000e+03 
86.398   1.61700000e+03 
86.337   1.47600000e+03 
86.277   1.37000000e+03 
86.216   1.25700000e+03 
86.155   1.22300000e+03 
86.094   1.24500000e+03 
86.033   1.21800000e+03 
85.973   1.27400000e+03 
85.912   1.31100000e+03 
85.851   1.34400000e+03 
85.790   1.45800000e+03 
85.729   1.49300000e+03 
85.669   1.57600000e+03 
85.608   1.64400000e+03 
85.547   1.73100000e+03 
85.486   1.77300000e+03 
85.426   1.95600000e+03 
85.365   2.00000000e+03 
85.304   2.01800000e+03 
85.243   2.14100000e+03 
85.182   2.15000000e+03 
85.122   2.28500000e+03 
85.061   2.33300000e+03 
85.000   2.40200000e+03 
84.939   2.50600000e+03 
84.878   2.45300000e+03 
84.818   2.59000000e+03 
84.757   2.71600000e+03 
84.696   2.89900000e+03 
84.635   3.00200000e+03 
84.574   3.02100000e+03 
84.514   3.02500000e+03 
84.453   3.15200000e+03 
84.392   2.99100000e+03 
84.331   2.80400000e+03 
84.271   2.69400000e+03 
84.210   2.39700000e+03 
84.149   2.16000000e+03 
84.088   1.96800000e+03 
84.027   1.70400000e+03 
83.967   1.53200000e+03 
83.906   1.39000000e+03 
83.845   1.28700000e+03 
83.784   1.26400000e+03 
83.723   1.34300000e+03 
83.663   1.43600000e+03 
83.602   1.49600000e+03 
83.541   1.68200000e+03 
83.480   1.74400000e+03 
83.420   1.86000000e+03 
83.359   1.87700000e+03 
83.298   2.01700000e+03 
83.237   2.00300000e+03 
83.176   2.09500000e+03 
83.116   1.97900000e+03 
83.055   1.92800000e+03 
82.994   1.89700000e+03 
82.933   1.83100000e+03 
82.872   1.75200000e+03 
82.812   1.71100000e+03 
82.751   1.56500000e+03 
82.690   1.52600000e+03 
82.629   1.38600000e+03 
82.569   1.26700000e+03 
82.508   1.16500000e+03 
82.447   1.06200000e+03 
82.386   9.29000000e+02 
82.325   8.41000000e+02 
82.265   7.66000000e+02 
82.204   7.32000000e+02 
82.143   6.75000000e+02 
82.082   5.77000000e+02 
82.021   5.09000000e+02 
81.961   4.85000000e+02 
81.900   4.40000000e+02 
81.839   3.92000000e+02 
81.778   3.89000000e+02 
81.717   3.74000000e+02 
81.657   3.68000000e+02 
81.596   3.66000000e+02 
81.535   3.38000000e+02 
81.474   3.16000000e+02 
81.414   3.11000000e+02 
81.353   2.87000000e+02 
81.292   2.77000000e+02 
81.231   3.02000000e+02 
81.170   3.03000000e+02 
81.110   2.58000000e+02 
81.049   3.02000000e+02 
