[ Experiment Parameters ]
Experiment Description= <none> 
Number_of_Regions_in_Experiment= 1 

Original_File_name= c:\alexesca\data\97072405.xps 
Instrument= ESCA-West
Date= 07-24-1997
Time=  12:16:38

[ Region 1 Parameters ]
Region_Description = Ni 2p 3/2 test  again                   
BEcenter(eV) = 865.000000
BEwidth(eV) = 60.000000
BEstep(eV) = 0.107813
Dwell_Time(sec) = 1.000000
N_o_scans = 4  
N_o_Channels = 554  
Excitation_Energy = -0.000000  
Scan_mode = 0  (DITHERED)

[ Region 1 Curve ]
BEcenter= 865.000 
BEwidth= -59.525 
Excitation= 1486.600
Time_p_channel= 341.333 
Size= 554
894.763  1.87100000e+03 
894.655  1.78400000e+03 
894.547  1.85100000e+03 
894.440  1.85100000e+03 
894.332  1.85700000e+03 
894.224  1.92300000e+03 
894.117  1.90200000e+03 
894.009  1.79000000e+03 
893.902  1.85600000e+03 
893.794  1.75900000e+03 
893.686  1.92700000e+03 
893.579  1.82900000e+03 
893.471  1.89100000e+03 
893.363  1.90000000e+03 
893.256  1.87200000e+03 
893.148  1.87100000e+03 
893.040  1.81900000e+03 
892.933  1.87300000e+03 
892.825  1.97300000e+03 
892.718  1.89600000e+03 
892.610  1.88200000e+03 
892.502  1.89300000e+03 
892.395  1.84100000e+03 
892.287  1.91400000e+03 
892.179  1.83100000e+03 
892.072  1.91300000e+03 
891.964  1.88300000e+03 
891.856  1.88600000e+03 
891.749  1.91300000e+03 
891.641  1.84400000e+03 
891.533  1.94700000e+03 
891.426  1.84900000e+03 
891.318  1.85600000e+03 
891.211  1.90400000e+03 
891.103  1.91100000e+03 
890.995  1.88900000e+03 
890.888  1.84900000e+03 
890.780  1.74900000e+03 
890.672  1.87300000e+03 
890.565  1.82600000e+03 
890.457  1.89500000e+03 
890.349  1.93300000e+03 
890.242  1.85200000e+03 
890.134  1.86500000e+03 
890.026  1.84400000e+03 
889.919  1.87800000e+03 
889.811  1.91700000e+03 
889.704  1.91200000e+03 
889.596  1.91600000e+03 
889.488  1.88400000e+03 
889.381  1.85700000e+03 
889.273  1.90800000e+03 
889.165  1.90100000e+03 
889.058  1.83900000e+03 
888.950  1.83000000e+03 
888.842  1.92000000e+03 
888.735  1.89700000e+03 
888.627  1.89000000e+03 
888.520  1.87200000e+03 
888.412  1.91100000e+03 
888.304  1.84700000e+03 
888.197  1.82700000e+03 
888.089  1.83800000e+03 
887.981  1.87500000e+03 
887.874  1.90200000e+03 
887.766  1.93700000e+03 
887.658  1.85500000e+03 
887.551  1.88900000e+03 
887.443  1.78800000e+03 
887.335  1.91400000e+03 
887.228  1.90500000e+03 
887.120  1.98100000e+03 
887.013  1.85700000e+03 
886.905  1.85200000e+03 
886.797  1.86400000e+03 
886.690  1.86800000e+03 
886.582  1.90000000e+03 
886.474  1.88600000e+03 
886.367  1.87300000e+03 
886.259  1.90500000e+03 
886.151  1.88700000e+03 
886.044  1.80100000e+03 
885.936  1.88400000e+03 
885.829  1.84600000e+03 
885.721  1.79300000e+03 
885.613  1.82000000e+03 
885.506  1.85200000e+03 
885.398  1.74800000e+03 
885.290  1.84200000e+03 
885.183  1.76700000e+03 
885.075  1.88200000e+03 
884.967  1.83700000e+03 
884.860  1.88800000e+03 
884.752  1.80700000e+03 
884.644  1.88000000e+03 
884.537  1.83700000e+03 
884.429  1.80700000e+03 
884.322  1.80700000e+03 
884.214  1.90300000e+03 
884.106  1.84900000e+03 
883.999  1.80400000e+03 
883.891  1.88600000e+03 
883.783  1.83500000e+03 
883.676  1.78400000e+03 
883.568  1.81500000e+03 
883.460  1.89000000e+03 
883.353  1.82900000e+03 
883.245  1.89900000e+03 
883.137  1.88100000e+03 
883.030  1.93400000e+03 
882.922  1.92100000e+03 
882.815  1.93200000e+03 
882.707  1.87600000e+03 
882.599  1.86800000e+03 
882.492  1.80800000e+03 
882.384  1.88900000e+03 
882.276  1.87100000e+03 
882.169  1.76300000e+03 
882.061  1.86800000e+03 
881.953  1.90900000e+03 
881.846  1.83900000e+03 
881.738  1.93500000e+03 
881.631  1.83800000e+03 
881.523  1.85400000e+03 
881.415  1.79500000e+03 
881.308  1.79500000e+03 
881.200  1.79700000e+03 
881.092  1.89600000e+03 
880.985  1.80400000e+03 
880.877  1.88200000e+03 
880.769  1.89900000e+03 
880.662  1.85500000e+03 
880.554  1.81900000e+03 
880.446  1.84500000e+03 
880.339  1.84300000e+03 
880.231  1.75900000e+03 
880.124  1.75400000e+03 
880.016  1.82300000e+03 
879.908  1.77000000e+03 
879.801  1.73600000e+03 
879.693  1.82100000e+03 
879.585  1.75100000e+03 
879.478  1.85200000e+03 
879.370  1.85600000e+03 
879.262  1.80400000e+03 
879.155  1.84300000e+03 
879.047  1.76600000e+03 
878.939  1.87100000e+03 
878.832  1.84800000e+03 
878.724  1.75300000e+03 
878.617  1.81200000e+03 
878.509  1.81100000e+03 
878.401  1.83100000e+03 
878.294  1.82200000e+03 
878.186  1.80800000e+03 
878.078  1.81600000e+03 
877.971  1.75800000e+03 
877.863  1.82400000e+03 
877.755  1.78200000e+03 
877.648  1.83500000e+03 
877.540  1.79400000e+03 
877.433  1.85200000e+03 
877.325  1.82600000e+03 
877.217  1.79600000e+03 
877.110  1.82800000e+03 
877.002  1.78500000e+03 
876.894  1.84200000e+03 
876.787  1.81500000e+03 
876.679  1.76900000e+03 
876.571  1.77700000e+03 
876.464  1.79200000e+03 
876.356  1.80800000e+03 
876.248  1.67400000e+03 
876.141  1.80800000e+03 
876.033  1.79500000e+03 
875.926  1.79300000e+03 
875.818  1.87900000e+03 
875.710  1.76600000e+03 
875.603  1.67700000e+03 
875.495  1.81200000e+03 
875.387  1.75800000e+03 
875.280  1.78000000e+03 
875.172  1.82400000e+03 
875.064  1.80400000e+03 
874.957  1.71200000e+03 
874.849  1.69700000e+03 
874.741  1.78200000e+03 
874.634  1.75100000e+03 
874.526  1.77100000e+03 
874.419  1.81100000e+03 
874.311  1.74000000e+03 
874.203  1.78400000e+03 
874.096  1.74200000e+03 
873.988  1.83100000e+03 
873.880  1.83300000e+03 
873.773  1.81200000e+03 
873.665  1.77500000e+03 
873.557  1.73800000e+03 
873.450  1.75800000e+03 
873.342  1.69500000e+03 
873.235  1.78400000e+03 
873.127  1.90500000e+03 
873.019  1.82400000e+03 
872.912  1.75600000e+03 
872.804  1.78600000e+03 
872.696  1.77300000e+03 
872.589  1.75500000e+03 
872.481  1.78400000e+03 
872.373  1.75300000e+03 
872.266  1.77600000e+03 
872.158  1.72500000e+03 
872.050  1.77600000e+03 
871.943  1.81000000e+03 
871.835  1.78600000e+03 
871.728  1.80500000e+03 
871.620  1.80600000e+03 
871.512  1.73700000e+03 
871.405  1.74000000e+03 
871.297  1.86500000e+03 
871.189  1.77200000e+03 
871.082  1.86900000e+03 
870.974  1.81500000e+03 
870.866  1.81400000e+03 
870.759  1.91500000e+03 
870.651  1.80100000e+03 
870.544  1.88600000e+03 
870.436  1.83200000e+03 
870.328  1.85500000e+03 
870.221  1.77000000e+03 
870.113  1.74800000e+03 
870.005  1.83400000e+03 
869.898  1.82200000e+03 
869.790  1.77200000e+03 
869.682  1.79400000e+03 
869.575  1.69000000e+03 
869.467  1.72500000e+03 
869.359  1.74700000e+03 
869.252  1.78000000e+03 
869.144  1.86300000e+03 
869.037  1.81000000e+03 
868.929  1.73900000e+03 
868.821  1.83200000e+03 
868.714  1.79100000e+03 
868.606  1.77200000e+03 
868.498  1.78900000e+03 
868.391  1.68800000e+03 
868.283  1.81400000e+03 
868.175  1.78500000e+03 
868.068  1.78500000e+03 
867.960  1.69500000e+03 
867.852  1.83100000e+03 
867.745  1.76400000e+03 
867.637  1.70600000e+03 
867.530  1.73600000e+03 
867.422  1.75400000e+03 
867.314  1.70200000e+03 
867.207  1.74500000e+03 
867.099  1.70200000e+03 
866.991  1.75000000e+03 
866.884  1.71600000e+03 
866.776  1.84300000e+03 
866.668  1.84700000e+03 
866.561  1.72000000e+03 
866.453  1.78200000e+03 
866.346  1.77600000e+03 
866.238  1.85000000e+03 
866.130  1.81400000e+03 
866.023  1.78800000e+03 
865.915  1.87500000e+03 
865.807  1.82400000e+03 
865.700  1.76000000e+03 
865.592  1.87200000e+03 
865.484  1.82100000e+03 
865.377  1.93100000e+03 
865.269  2.48200000e+03 
865.161  2.99100000e+03 
865.054  3.74500000e+03 
864.946  4.06900000e+03 
864.839  3.45900000e+03 
864.731  2.76300000e+03 
864.623  2.16800000e+03 
864.516  1.81500000e+03 
864.408  1.83300000e+03 
864.300  1.80000000e+03 
864.193  1.75300000e+03 
864.085  1.78200000e+03 
863.977  1.73800000e+03 
863.870  1.77100000e+03 
863.762  1.74600000e+03 
863.654  1.74300000e+03 
863.547  1.76200000e+03 
863.439  1.72500000e+03 
863.332  1.76800000e+03 
863.224  1.71800000e+03 
863.116  1.71900000e+03 
863.009  1.74800000e+03 
862.901  1.75500000e+03 
862.793  1.73600000e+03 
862.686  1.66900000e+03 
862.578  1.78100000e+03 
862.470  1.81100000e+03 
862.363  1.76000000e+03 
862.255  1.71800000e+03 
862.148  1.75400000e+03 
862.040  1.73000000e+03 
861.932  1.80500000e+03 
861.825  1.73600000e+03 
861.717  1.73800000e+03 
861.609  1.76400000e+03 
861.502  1.69800000e+03 
861.394  1.70000000e+03 
861.286  1.69900000e+03 
861.179  1.70200000e+03 
861.071  1.74500000e+03 
860.963  1.75900000e+03 
860.856  1.71800000e+03 
860.748  1.78600000e+03 
860.641  1.72200000e+03 
860.533  1.75800000e+03 
860.425  1.65600000e+03 
860.318  1.65000000e+03 
860.210  1.69900000e+03 
860.102  1.70100000e+03 
859.995  1.64900000e+03 
859.887  1.64700000e+03 
859.779  1.75000000e+03 
859.672  1.71200000e+03 
859.564  1.66100000e+03 
859.456  1.70700000e+03 
859.349  1.69000000e+03 
859.241  1.72500000e+03 
859.134  1.72200000e+03 
859.026  1.69100000e+03 
858.918  1.71900000e+03 
858.811  1.70500000e+03 
858.703  1.64800000e+03 
858.595  1.69500000e+03 
858.488  1.74500000e+03 
858.380  1.64600000e+03 
858.272  1.68900000e+03 
858.165  1.68400000e+03 
858.057  1.67500000e+03 
857.950  1.64700000e+03 
857.842  1.68300000e+03 
857.734  1.78900000e+03 
857.627  1.68400000e+03 
857.519  1.72900000e+03 
857.411  1.67800000e+03 
857.304  1.68900000e+03 
857.196  1.68900000e+03 
857.088  1.70400000e+03 
856.981  1.67600000e+03 
856.873  1.60700000e+03 
856.765  1.68400000e+03 
856.658  1.67200000e+03 
856.550  1.74100000e+03 
856.443  1.75500000e+03 
856.335  1.62500000e+03 
856.227  1.66000000e+03 
856.120  1.73500000e+03 
856.012  1.70200000e+03 
855.904  1.68100000e+03 
855.797  1.72700000e+03 
855.689  1.67000000e+03 
855.581  1.71700000e+03 
855.474  1.71900000e+03 
855.366  1.67800000e+03 
855.259  1.73500000e+03 
855.151  1.81400000e+03 
855.043  1.64600000e+03 
854.936  1.63000000e+03 
854.828  1.72700000e+03 
854.720  1.64300000e+03 
854.613  1.74400000e+03 
854.505  1.68200000e+03 
854.397  1.69900000e+03 
854.290  1.73200000e+03 
854.182  1.69200000e+03 
854.074  1.69700000e+03 
853.967  1.63300000e+03 
853.859  1.69800000e+03 
853.752  1.67300000e+03 
853.644  1.69600000e+03 
853.536  1.68300000e+03 
853.429  1.65600000e+03 
853.321  1.63800000e+03 
853.213  1.70900000e+03 
853.106  1.65600000e+03 
852.998  1.60000000e+03 
852.890  1.68300000e+03 
852.783  1.72100000e+03 
852.675  1.66000000e+03 
852.567  1.73000000e+03 
852.460  1.64000000e+03 
852.352  1.65700000e+03 
852.245  1.70200000e+03 
852.137  1.67600000e+03 
852.029  1.66000000e+03 
851.922  1.71300000e+03 
851.814  1.68300000e+03 
851.706  1.65700000e+03 
851.599  1.67400000e+03 
851.491  1.70300000e+03 
851.383  1.70000000e+03 
851.276  1.64000000e+03 
851.168  1.71500000e+03 
851.061  1.70100000e+03 
850.953  1.64900000e+03 
850.845  1.66500000e+03 
850.738  1.58600000e+03 
850.630  1.66900000e+03 
850.522  1.71200000e+03 
850.415  1.66300000e+03 
850.307  1.66700000e+03 
850.199  1.71600000e+03 
850.092  1.66200000e+03 
849.984  1.69800000e+03 
849.876  1.67500000e+03 
849.769  1.70600000e+03 
849.661  1.66500000e+03 
849.554  1.57400000e+03 
849.446  1.65800000e+03 
849.338  1.65700000e+03 
849.231  1.70200000e+03 
849.123  1.73100000e+03 
849.015  1.68000000e+03 
848.908  1.61000000e+03 
848.800  1.63600000e+03 
848.692  1.70600000e+03 
848.585  1.67900000e+03 
848.477  1.61800000e+03 
848.369  1.68100000e+03 
848.262  1.58100000e+03 
848.154  1.68300000e+03 
848.047  1.67400000e+03 
847.939  1.66800000e+03 
847.831  1.70700000e+03 
847.724  1.67600000e+03 
847.616  1.63400000e+03 
847.508  1.65800000e+03 
847.401  1.70000000e+03 
847.293  1.61500000e+03 
847.185  1.63800000e+03 
847.078  1.62700000e+03 
846.970  1.70400000e+03 
846.863  1.68200000e+03 
846.755  1.64200000e+03 
846.647  1.66400000e+03 
846.540  1.66700000e+03 
846.432  1.64400000e+03 
846.324  1.71400000e+03 
846.217  1.64700000e+03 
846.109  1.75700000e+03 
846.001  1.64200000e+03 
845.894  1.60200000e+03 
845.786  1.64600000e+03 
845.678  1.67900000e+03 
845.571  1.68800000e+03 
845.463  1.62900000e+03 
845.356  1.66800000e+03 
845.248  1.67500000e+03 
845.140  1.63200000e+03 
845.033  1.65000000e+03 
844.925  1.70300000e+03 
844.817  1.64300000e+03 
844.710  1.66500000e+03 
844.602  1.67200000e+03 
844.494  1.66600000e+03 
844.387  1.66900000e+03 
844.279  1.65000000e+03 
844.171  1.64700000e+03 
844.064  1.67500000e+03 
843.956  1.58700000e+03 
843.849  1.71500000e+03 
843.741  1.62100000e+03 
843.633  1.66400000e+03 
843.526  1.69400000e+03 
843.418  1.65400000e+03 
843.310  1.76600000e+03 
843.203  1.63700000e+03 
843.095  1.63400000e+03 
842.987  1.66300000e+03 
842.880  1.67100000e+03 
842.772  1.58600000e+03 
842.665  1.68800000e+03 
842.557  1.67900000e+03 
842.449  1.53800000e+03 
842.342  1.63800000e+03 
842.234  1.61000000e+03 
842.126  1.59400000e+03 
842.019  1.62800000e+03 
841.911  1.64400000e+03 
841.803  1.70400000e+03 
841.696  1.56000000e+03 
841.588  1.60400000e+03 
841.480  1.66600000e+03 
841.373  1.56900000e+03 
841.265  1.65000000e+03 
841.158  1.64700000e+03 
841.050  1.57400000e+03 
840.942  1.60600000e+03 
840.835  1.71000000e+03 
840.727  1.61200000e+03 
840.619  1.68300000e+03 
840.512  1.61600000e+03 
840.404  1.65600000e+03 
840.296  1.68600000e+03 
840.189  1.60400000e+03 
840.081  1.56900000e+03 
839.974  1.63300000e+03 
839.866  1.69900000e+03 
839.758  1.61400000e+03 
839.651  1.60100000e+03 
839.543  1.60900000e+03 
839.435  1.69900000e+03 
839.328  1.68700000e+03 
839.220  1.72200000e+03 
839.112  1.66900000e+03 
839.005  1.69100000e+03 
838.897  1.69700000e+03 
838.789  1.71700000e+03 
838.682  1.66400000e+03 
838.574  1.66400000e+03 
838.467  1.61500000e+03 
838.359  1.60300000e+03 
838.251  1.57400000e+03 
838.144  1.68100000e+03 
838.036  1.69900000e+03 
837.928  1.61100000e+03 
837.821  1.62000000e+03 
837.713  1.57200000e+03 
837.605  1.61400000e+03 
837.498  1.64500000e+03 
837.390  1.64600000e+03 
837.282  1.70500000e+03 
837.175  1.61200000e+03 
837.067  1.57500000e+03 
836.960  1.65700000e+03 
836.852  1.58100000e+03 
836.744  1.63200000e+03 
836.637  1.58700000e+03 
836.529  1.60800000e+03 
836.421  1.53400000e+03 
836.314  1.58300000e+03 
836.206  1.59300000e+03 
836.098  1.60900000e+03 
835.991  1.57900000e+03 
835.883  1.63200000e+03 
835.776  1.66100000e+03 
835.668  1.63100000e+03 
835.560  1.58600000e+03 
835.453  1.67800000e+03 
835.345  1.61100000e+03 
835.237  1.64100000e+03 
