EXPERIMENT FILE
Version = 2

[ Experiment Parameters ]
Experiment Description= Attempt1Cu111014 
Number_of_Regions_in_Experiment= 1 

Original_File_name= C:\alexesca\data\New Folder\Attempt1Cu111014.xps 
Instrument= HP ESCA West
Date= 11-10-2014
Time=  14:42:24

[ Layer Parameters ]
Layer_Type= XPS

[ Region 1 Parameters ]
Region_Description = Fixed552eV                         
BEcenter(eV) = 552.000000
BEwidth(eV) = 9.200000
BEstep(eV) = 0.035938
Dwell_Time(sec) = 1.000000
N_o_scans = 1000  
N_o_Channels = 256  
Scan_mode = 1  (FIXED)

[ L= 1 R= 1 ]
BEcenter= 552.000 
BEwidth= -9.200  
Excitation= 1486.600
Time_p_channel= 1000.000
Size= 256
556.600  1.66300000e+03 
556.564  1.61700000e+03 
556.528  1.66800000e+03 
556.492  1.68500000e+03 
556.456  1.62900000e+03 
556.420  1.70800000e+03 
556.384  1.77800000e+03 
556.347  1.68500000e+03 
556.311  1.77300000e+03 
556.275  1.79300000e+03 
556.239  1.68200000e+03 
556.203  1.79200000e+03 
556.167  1.71800000e+03 
556.131  1.71300000e+03 
556.095  1.70500000e+03 
556.059  1.74700000e+03 
556.023  1.78100000e+03 
555.987  1.67300000e+03 
555.951  1.77900000e+03 
555.915  1.77500000e+03 
555.878  1.82900000e+03 
555.842  1.81900000e+03 
555.806  1.75200000e+03 
555.770  1.81800000e+03 
555.734  1.85500000e+03 
555.698  1.80900000e+03 
555.662  1.78400000e+03 
555.626  1.74300000e+03 
555.590  1.83200000e+03 
555.554  1.84500000e+03 
555.518  1.82400000e+03 
555.482  1.75500000e+03 
555.445  1.88000000e+03 
555.409  1.89100000e+03 
555.373  1.78600000e+03 
555.337  1.82300000e+03 
555.301  1.91400000e+03 
555.265  1.85600000e+03 
555.229  1.85100000e+03 
555.193  1.87800000e+03 
555.157  1.90500000e+03 
555.121  1.83600000e+03 
555.085  1.92700000e+03 
555.049  1.87600000e+03 
555.013  1.93900000e+03 
554.976  1.94500000e+03 
554.940  1.96400000e+03 
554.904  1.94200000e+03 
554.868  1.98900000e+03 
554.832  1.93900000e+03 
554.796  1.97000000e+03 
554.760  1.98800000e+03 
554.724  1.94100000e+03 
554.688  1.99600000e+03 
554.652  2.02900000e+03 
554.616  1.92700000e+03 
554.580  2.09200000e+03 
554.544  1.88900000e+03 
554.507  2.01400000e+03 
554.471  1.94400000e+03 
554.435  1.95200000e+03 
554.399  2.04300000e+03 
554.363  1.96300000e+03 
554.327  1.97700000e+03 
554.291  2.04200000e+03 
554.255  2.01200000e+03 
554.219  2.03400000e+03 
554.183  1.92700000e+03 
554.147  2.06000000e+03 
554.111  1.99900000e+03 
554.075  2.04600000e+03 
554.038  2.10300000e+03 
554.002  1.97000000e+03 
553.966  2.04800000e+03 
553.930  1.99800000e+03 
553.894  2.10400000e+03 
553.858  2.02800000e+03 
553.822  2.14500000e+03 
553.786  2.08400000e+03 
553.750  2.10500000e+03 
553.714  2.07400000e+03 
553.678  2.14600000e+03 
553.642  2.12000000e+03 
553.605  2.06600000e+03 
553.569  2.09300000e+03 
553.533  2.16700000e+03 
553.497  2.10200000e+03 
553.461  2.07600000e+03 
553.425  2.14600000e+03 
553.389  2.08600000e+03 
553.353  2.07100000e+03 
553.317  2.09400000e+03 
553.281  2.04200000e+03 
553.245  1.96700000e+03 
553.209  1.98800000e+03 
553.173  1.99700000e+03 
553.136  2.08200000e+03 
553.100  2.04300000e+03 
553.064  2.02900000e+03 
553.028  2.05400000e+03 
552.992  2.01700000e+03 
552.956  2.05900000e+03 
552.920  1.97100000e+03 
552.884  1.97900000e+03 
552.848  1.97400000e+03 
552.812  1.98700000e+03 
552.776  1.95300000e+03 
552.740  1.97800000e+03 
552.704  1.97900000e+03 
552.667  1.99600000e+03 
552.631  1.93700000e+03 
552.595  1.88400000e+03 
552.559  1.93500000e+03 
552.523  1.89700000e+03 
552.487  1.88400000e+03 
552.451  1.94000000e+03 
552.415  1.85600000e+03 
552.379  1.91900000e+03 
552.343  1.94900000e+03 
552.307  1.93100000e+03 
552.271  1.93100000e+03 
552.235  1.98400000e+03 
552.198  1.86700000e+03 
552.162  1.95200000e+03 
552.126  1.88000000e+03 
552.090  1.89500000e+03 
552.054  1.91400000e+03 
552.018  1.81700000e+03 
551.982  1.90300000e+03 
551.946  1.83400000e+03 
551.910  1.82000000e+03 
551.874  1.78200000e+03 
551.838  1.79100000e+03 
551.802  1.79900000e+03 
551.765  1.89100000e+03 
551.729  1.80900000e+03 
551.693  1.81500000e+03 
551.657  1.85400000e+03 
551.621  1.84600000e+03 
551.585  1.85600000e+03 
551.549  1.84800000e+03 
551.513  1.83800000e+03 
551.477  1.87800000e+03 
551.441  1.87300000e+03 
551.405  1.77300000e+03 
551.369  1.71300000e+03 
551.333  1.81600000e+03 
551.296  1.76800000e+03 
551.260  1.68800000e+03 
551.224  1.75200000e+03 
551.188  1.74700000e+03 
551.152  1.76200000e+03 
551.116  1.67800000e+03 
551.080  1.74100000e+03 
551.044  1.68500000e+03 
551.008  1.72400000e+03 
550.972  1.63600000e+03 
550.936  1.68400000e+03 
550.900  1.77500000e+03 
550.864  1.69900000e+03 
550.827  1.63000000e+03 
550.791  1.67600000e+03 
550.755  1.72100000e+03 
550.719  1.61300000e+03 
550.683  1.73100000e+03 
550.647  1.62200000e+03 
550.611  1.67000000e+03 
550.575  1.69100000e+03 
550.539  1.61200000e+03 
550.503  1.53100000e+03 
550.467  1.61200000e+03 
550.431  1.66900000e+03 
550.395  1.56400000e+03 
550.358  1.61400000e+03 
550.322  1.65000000e+03 
550.286  1.61500000e+03 
550.250  1.68100000e+03 
550.214  1.63800000e+03 
550.178  1.68400000e+03 
550.142  1.70600000e+03 
550.106  1.66400000e+03 
550.070  1.68400000e+03 
550.034  1.63600000e+03 
549.998  1.64000000e+03 
549.962  1.64400000e+03 
549.925  1.58900000e+03 
549.889  1.63600000e+03 
549.853  1.67200000e+03 
549.817  1.56900000e+03 
549.781  1.65900000e+03 
549.745  1.57700000e+03 
549.709  1.58100000e+03 
549.673  1.57800000e+03 
549.637  1.50500000e+03 
549.601  1.57800000e+03 
549.565  1.56000000e+03 
549.529  1.52800000e+03 
549.493  1.46100000e+03 
549.456  1.46600000e+03 
549.420  1.50800000e+03 
549.384  1.44200000e+03 
549.348  1.52200000e+03 
549.312  1.52500000e+03 
549.276  1.50200000e+03 
549.240  1.47000000e+03 
549.204  1.35700000e+03 
549.168  1.50900000e+03 
549.132  1.50500000e+03 
549.096  1.48400000e+03 
549.060  1.41200000e+03 
549.024  1.51100000e+03 
548.987  1.36500000e+03 
548.951  1.46500000e+03 
548.915  1.32700000e+03 
548.879  1.39200000e+03 
548.843  1.42800000e+03 
548.807  1.36500000e+03 
548.771  1.45400000e+03 
548.735  1.35700000e+03 
548.699  1.38600000e+03 
548.663  1.38600000e+03 
548.627  1.36200000e+03 
548.591  1.35400000e+03 
548.555  1.34900000e+03 
548.518  1.31700000e+03 
548.482  1.29700000e+03 
548.446  1.29800000e+03 
548.410  1.36200000e+03 
548.374  1.37600000e+03 
548.338  1.30300000e+03 
548.302  1.33600000e+03 
548.266  1.34400000e+03 
548.230  1.24700000e+03 
548.194  1.27100000e+03 
548.158  1.26300000e+03 
548.122  1.31400000e+03 
548.085  1.24700000e+03 
548.049  1.25300000e+03 
548.013  1.28800000e+03 
547.977  1.21600000e+03 
547.941  1.27800000e+03 
547.905  1.30400000e+03 
547.869  1.19200000e+03 
547.833  1.10900000e+03 
547.797  1.23000000e+03 
547.761  1.00600000e+03 
547.725  9.97000000e+02 
547.689  1.03900000e+03 
547.653  8.34000000e+02 
547.616  9.18000000e+02 
547.580  8.87000000e+02 
547.544  7.01000000e+02 
547.508  6.11000000e+02 
547.472  3.40000000e+02 
547.436  0.00000000e+00 
547.400  0.00000000e+00 

