EXPERIMENT FILE
Version = 2

[ Experiment Parameters ]
Experiment Description= <none> 
Number_of_Regions_in_Experiment= 1 

Original_File_name= C:\alexesca\data\0821Au2.xps 
Instrument= HP ESCA West
Date= 08-21-2012
Time=  16:11:34

[ Layer Parameters ]
Layer_Type= XPS

[ Region 1 Parameters ]
Region_Description = Au Dithered Scan Test              
BEcenter(eV) = 91.000000
BEwidth(eV) = 10.000000
BEstep(eV) = 0.035937
Dwell_Time(sec) = 1.000000
N_o_scans = 1  
N_o_Channels = 278  
Scan_mode = 0  (DITHERED)

[ L= 1 R= 1 ]
BEcenter= 91.000  
BEwidth= -9.955  
Excitation= 1486.600
Time_p_channel= 256.000 
Size= 278
95.977   8.96000000e+02 
95.941   8.85000000e+02 
95.905   8.22000000e+02 
95.870   8.45000000e+02 
95.834   8.36000000e+02 
95.798   7.99000000e+02 
95.762   8.16000000e+02 
95.726   8.76000000e+02 
95.690   8.41000000e+02 
95.654   8.58000000e+02 
95.618   8.91000000e+02 
95.582   8.64000000e+02 
95.546   8.47000000e+02 
95.510   8.09000000e+02 
95.474   8.79000000e+02 
95.438   8.08000000e+02 
95.402   8.45000000e+02 
95.366   8.95000000e+02 
95.330   8.03000000e+02 
95.295   8.43000000e+02 
95.259   8.30000000e+02 
95.223   7.89000000e+02 
95.187   8.42000000e+02 
95.151   7.72000000e+02 
95.115   7.80000000e+02 
95.079   8.75000000e+02 
95.043   8.31000000e+02 
95.007   8.28000000e+02 
94.971   8.82000000e+02 
94.935   8.34000000e+02 
94.899   8.15000000e+02 
94.863   7.93000000e+02 
94.827   8.09000000e+02 
94.791   7.86000000e+02 
94.755   8.35000000e+02 
94.720   8.45000000e+02 
94.684   8.65000000e+02 
94.648   8.23000000e+02 
94.612   8.16000000e+02 
94.576   8.50000000e+02 
94.540   8.37000000e+02 
94.504   8.36000000e+02 
94.468   8.33000000e+02 
94.432   7.91000000e+02 
94.396   8.69000000e+02 
94.360   8.29000000e+02 
94.324   9.01000000e+02 
94.288   8.67000000e+02 
94.252   8.49000000e+02 
94.216   8.36000000e+02 
94.180   8.29000000e+02 
94.145   8.06000000e+02 
94.109   8.36000000e+02 
94.073   8.33000000e+02 
94.037   8.86000000e+02 
94.001   8.30000000e+02 
93.965   7.74000000e+02 
93.929   8.18000000e+02 
93.893   8.92000000e+02 
93.857   7.87000000e+02 
93.821   7.94000000e+02 
93.785   8.03000000e+02 
93.749   8.30000000e+02 
93.713   8.77000000e+02 
93.677   8.34000000e+02 
93.641   8.08000000e+02 
93.605   8.40000000e+02 
93.570   7.85000000e+02 
93.534   7.91000000e+02 
93.498   8.71000000e+02 
93.462   8.43000000e+02 
93.426   8.63000000e+02 
93.390   8.75000000e+02 
93.354   8.48000000e+02 
93.318   7.78000000e+02 
93.282   8.77000000e+02 
93.246   8.29000000e+02 
93.210   8.37000000e+02 
93.174   8.22000000e+02 
93.138   8.58000000e+02 
93.102   8.81000000e+02 
93.066   8.28000000e+02 
93.030   8.19000000e+02 
92.995   8.16000000e+02 
92.959   8.40000000e+02 
92.923   8.39000000e+02 
92.887   8.08000000e+02 
92.851   8.09000000e+02 
92.815   8.55000000e+02 
92.779   7.77000000e+02 
92.743   7.66000000e+02 
92.707   8.23000000e+02 
92.671   8.28000000e+02 
92.635   8.26000000e+02 
92.599   8.18000000e+02 
92.563   8.12000000e+02 
92.527   8.56000000e+02 
92.491   8.74000000e+02 
92.455   8.32000000e+02 
92.420   8.77000000e+02 
92.384   8.05000000e+02 
92.348   8.38000000e+02 
92.312   8.44000000e+02 
92.276   8.30000000e+02 
92.240   8.68000000e+02 
92.204   8.40000000e+02 
92.168   8.56000000e+02 
92.132   8.34000000e+02 
92.096   8.22000000e+02 
92.060   7.91000000e+02 
92.024   8.05000000e+02 
91.988   8.31000000e+02 
91.952   8.22000000e+02 
91.916   8.69000000e+02 
91.880   8.48000000e+02 
91.845   8.14000000e+02 
91.809   8.06000000e+02 
91.773   8.62000000e+02 
91.737   8.67000000e+02 
91.701   8.91000000e+02 
91.665   8.21000000e+02 
91.629   8.78000000e+02 
91.593   8.76000000e+02 
91.557   9.19000000e+02 
91.521   8.77000000e+02 
91.485   8.44000000e+02 
91.449   8.83000000e+02 
91.413   8.83000000e+02 
91.377   8.25000000e+02 
91.341   8.41000000e+02 
91.305   8.79000000e+02 
91.270   9.09000000e+02 
91.234   9.13000000e+02 
91.198   8.71000000e+02 
91.162   8.40000000e+02 
91.126   8.20000000e+02 
91.090   8.14000000e+02 
91.054   8.82000000e+02 
91.018   7.99000000e+02 
90.982   8.97000000e+02 
90.946   8.83000000e+02 
90.910   8.69000000e+02 
90.874   8.66000000e+02 
90.838   8.86000000e+02 
90.802   8.83000000e+02 
90.766   8.56000000e+02 
90.730   8.24000000e+02 
90.695   8.32000000e+02 
90.659   8.83000000e+02 
90.623   8.34000000e+02 
90.587   8.59000000e+02 
90.551   8.93000000e+02 
90.515   8.56000000e+02 
90.479   8.55000000e+02 
90.443   8.44000000e+02 
90.407   8.50000000e+02 
90.371   8.51000000e+02 
90.335   8.42000000e+02 
90.299   8.45000000e+02 
90.263   9.05000000e+02 
90.227   9.28000000e+02 
90.191   8.36000000e+02 
90.155   8.93000000e+02 
90.120   8.68000000e+02 
90.084   8.61000000e+02 
90.048   8.65000000e+02 
90.012   8.37000000e+02 
89.976   8.67000000e+02 
89.940   8.95000000e+02 
89.904   8.55000000e+02 
89.868   8.77000000e+02 
89.832   9.30000000e+02 
89.796   9.16000000e+02 
89.760   8.76000000e+02 
89.724   8.60000000e+02 
89.688   8.62000000e+02 
89.652   8.29000000e+02 
89.616   8.30000000e+02 
89.580   8.30000000e+02 
89.545   8.05000000e+02 
89.509   8.58000000e+02 
89.473   8.66000000e+02 
89.437   8.49000000e+02 
89.401   8.57000000e+02 
89.365   8.94000000e+02 
89.329   9.17000000e+02 
89.293   8.45000000e+02 
89.257   8.39000000e+02 
89.221   8.23000000e+02 
89.185   8.75000000e+02 
89.149   8.90000000e+02 
89.113   8.28000000e+02 
89.077   8.08000000e+02 
89.041   8.76000000e+02 
89.005   8.49000000e+02 
88.970   8.29000000e+02 
88.934   8.29000000e+02 
88.898   8.63000000e+02 
88.862   8.57000000e+02 
88.826   8.93000000e+02 
88.790   8.22000000e+02 
88.754   8.69000000e+02 
88.718   8.52000000e+02 
88.682   8.69000000e+02 
88.646   8.70000000e+02 
88.610   8.79000000e+02 
88.574   8.24000000e+02 
88.538   8.31000000e+02 
88.502   8.09000000e+02 
88.466   8.33000000e+02 
88.430   8.19000000e+02 
88.395   8.30000000e+02 
88.359   8.86000000e+02 
88.323   8.52000000e+02 
88.287   8.81000000e+02 
88.251   8.17000000e+02 
88.215   8.40000000e+02 
88.179   8.15000000e+02 
88.143   8.39000000e+02 
88.107   8.27000000e+02 
88.071   7.92000000e+02 
88.035   8.34000000e+02 
87.999   8.37000000e+02 
87.963   8.26000000e+02 
87.927   8.02000000e+02 
87.891   8.64000000e+02 
87.855   8.66000000e+02 
87.820   7.59000000e+02 
87.784   8.15000000e+02 
87.748   8.70000000e+02 
87.712   8.27000000e+02 
87.676   8.47000000e+02 
87.640   8.46000000e+02 
87.604   9.03000000e+02 
87.568   8.01000000e+02 
87.532   8.15000000e+02 
87.496   8.46000000e+02 
87.460   8.66000000e+02 
87.424   8.32000000e+02 
87.388   8.35000000e+02 
87.352   8.09000000e+02 
87.316   8.19000000e+02 
87.280   8.16000000e+02 
87.245   8.89000000e+02 
87.209   8.25000000e+02 
87.173   8.65000000e+02 
87.137   8.40000000e+02 
87.101   8.41000000e+02 
87.065   7.94000000e+02 
87.029   8.87000000e+02 
86.993   8.72000000e+02 
86.957   8.81000000e+02 
86.921   8.46000000e+02 
86.885   8.67000000e+02 
86.849   8.23000000e+02 
86.813   8.17000000e+02 
86.777   8.43000000e+02 
86.741   8.13000000e+02 
86.705   8.36000000e+02 
86.670   8.06000000e+02 
86.634   8.01000000e+02 
86.598   8.48000000e+02 
86.562   8.08000000e+02 
86.526   7.71000000e+02 
86.490   8.00000000e+02 
86.454   8.24000000e+02 
86.418   8.07000000e+02 
86.382   8.45000000e+02 
86.346   7.49000000e+02 
86.310   8.09000000e+02 
86.274   8.00000000e+02 
86.238   8.10000000e+02 
86.202   8.08000000e+02 
86.166   8.62000000e+02 
86.130   8.87000000e+02 
86.095   8.18000000e+02 
86.059   8.36000000e+02 
86.023   8.47000000e+02 

