EXPERIMENT FILE
Version = 2

[ Experiment Parameters ]
Experiment Description= <none> 
Number_of_Regions_in_Experiment= 1 

Original_File_name= C:\alexesca\data\0827_400W_40Deg.xps 
Instrument= HP ESCA West
Date= 08-28-2012
Time=  13:19:13

[ Layer Parameters ]
Layer_Type= XPS

[ Region 1 Parameters ]
Region_Description = Au Dithered Scan Test              
BEcenter(eV) = 91.000000
BEwidth(eV) = 10.000000
BEstep(eV) = 0.035937
Dwell_Time(sec) = 1.000000
N_o_scans = 1  
N_o_Channels = 278  
Scan_mode = 0  (DITHERED)

[ L= 1 R= 1 ]
BEcenter= 91.000  
BEwidth= -9.955  
Excitation= 1486.600
Time_p_channel= 256.000 
Size= 278
95.977   9.97000000e+02 
95.941   1.03900000e+03 
95.905   1.05000000e+03 
95.870   1.06700000e+03 
95.834   1.15900000e+03 
95.798   1.25500000e+03 
95.762   1.24200000e+03 
95.726   1.34700000e+03 
95.690   1.34900000e+03 
95.654   1.43400000e+03 
95.618   1.51500000e+03 
95.582   1.56700000e+03 
95.546   1.53800000e+03 
95.510   1.62500000e+03 
95.474   1.63400000e+03 
95.438   1.64900000e+03 
95.402   1.76400000e+03 
95.366   1.80500000e+03 
95.330   1.85300000e+03 
95.295   1.90200000e+03 
95.259   1.79600000e+03 
95.223   1.87100000e+03 
95.187   1.81900000e+03 
95.151   1.88000000e+03 
95.115   1.97100000e+03 
95.079   1.88000000e+03 
95.043   1.81500000e+03 
95.007   1.83300000e+03 
94.971   1.76000000e+03 
94.935   1.71800000e+03 
94.899   1.68600000e+03 
94.863   1.61300000e+03 
94.827   1.56200000e+03 
94.791   1.43400000e+03 
94.755   1.35400000e+03 
94.720   1.23100000e+03 
94.684   1.18700000e+03 
94.648   1.13600000e+03 
94.612   1.04800000e+03 
94.576   1.01900000e+03 
94.540   9.53000000e+02 
94.504   9.27000000e+02 
94.468   8.68000000e+02 
94.432   8.17000000e+02 
94.396   7.45000000e+02 
94.360   7.49000000e+02 
94.324   7.12000000e+02 
94.288   7.00000000e+02 
94.252   6.81000000e+02 
94.216   6.84000000e+02 
94.180   6.41000000e+02 
94.145   5.98000000e+02 
94.109   5.97000000e+02 
94.073   5.56000000e+02 
94.037   5.92000000e+02 
94.001   5.50000000e+02 
93.965   5.59000000e+02 
93.929   5.26000000e+02 
93.893   5.40000000e+02 
93.857   5.18000000e+02 
93.821   5.31000000e+02 
93.785   5.23000000e+02 
93.749   4.74000000e+02 
93.713   4.50000000e+02 
93.677   4.48000000e+02 
93.641   4.65000000e+02 
93.605   4.59000000e+02 
93.570   4.26000000e+02 
93.534   4.39000000e+02 
93.498   4.41000000e+02 
93.462   4.60000000e+02 
93.426   4.10000000e+02 
93.390   4.17000000e+02 
93.354   4.38000000e+02 
93.318   4.59000000e+02 
93.282   4.24000000e+02 
93.246   4.37000000e+02 
93.210   4.52000000e+02 
93.174   4.36000000e+02 
93.138   4.73000000e+02 
93.102   4.33000000e+02 
93.066   4.49000000e+02 
93.030   4.87000000e+02 
92.995   4.86000000e+02 
92.959   5.55000000e+02 
92.923   5.43000000e+02 
92.887   5.52000000e+02 
92.851   5.44000000e+02 
92.815   6.07000000e+02 
92.779   6.51000000e+02 
92.743   6.18000000e+02 
92.707   6.54000000e+02 
92.671   6.86000000e+02 
92.635   7.67000000e+02 
92.599   7.63000000e+02 
92.563   7.71000000e+02 
92.527   7.99000000e+02 
92.491   8.39000000e+02 
92.455   8.99000000e+02 
92.420   9.18000000e+02 
92.384   9.32000000e+02 
92.348   1.01500000e+03 
92.312   1.07700000e+03 
92.276   1.15200000e+03 
92.240   1.23900000e+03 
92.204   1.25200000e+03 
92.168   1.32800000e+03 
92.132   1.34600000e+03 
92.096   1.44800000e+03 
92.060   1.48400000e+03 
92.024   1.64200000e+03 
91.988   1.64600000e+03 
91.952   1.68200000e+03 
91.916   1.83000000e+03 
91.880   1.84800000e+03 
91.845   1.82000000e+03 
91.809   1.94600000e+03 
91.773   2.04800000e+03 
91.737   2.16900000e+03 
91.701   2.18900000e+03 
91.665   2.22300000e+03 
91.629   2.25600000e+03 
91.593   2.21200000e+03 
91.557   2.33200000e+03 
91.521   2.33400000e+03 
91.485   2.39500000e+03 
91.449   2.37900000e+03 
91.413   2.20000000e+03 
91.377   2.23000000e+03 
91.341   2.26900000e+03 
91.305   2.12400000e+03 
91.270   2.01900000e+03 
91.234   1.98200000e+03 
91.198   1.81400000e+03 
91.162   1.72800000e+03 
91.126   1.67500000e+03 
91.090   1.50600000e+03 
91.054   1.45600000e+03 
91.018   1.31800000e+03 
90.982   1.15400000e+03 
90.946   1.13800000e+03 
90.910   1.07300000e+03 
90.874   1.00600000e+03 
90.838   9.47000000e+02 
90.802   8.17000000e+02 
90.766   8.16000000e+02 
90.730   7.84000000e+02 
90.695   7.35000000e+02 
90.659   6.55000000e+02 
90.623   6.83000000e+02 
90.587   6.16000000e+02 
90.551   5.78000000e+02 
90.515   5.95000000e+02 
90.479   5.78000000e+02 
90.443   5.46000000e+02 
90.407   5.16000000e+02 
90.371   4.12000000e+02 
90.335   4.85000000e+02 
90.299   4.41000000e+02 
90.263   3.84000000e+02 
90.227   4.04000000e+02 
90.191   3.95000000e+02 
90.155   3.57000000e+02 
90.120   3.58000000e+02 
90.084   3.56000000e+02 
90.048   3.29000000e+02 
90.012   2.97000000e+02 
89.976   3.03000000e+02 
89.940   2.95000000e+02 
89.904   2.56000000e+02 
89.868   2.51000000e+02 
89.832   2.73000000e+02 
89.796   2.33000000e+02 
89.760   2.27000000e+02 
89.724   2.54000000e+02 
89.688   2.26000000e+02 
89.652   2.17000000e+02 
89.616   2.12000000e+02 
89.580   1.93000000e+02 
89.545   2.11000000e+02 
89.509   1.91000000e+02 
89.473   1.90000000e+02 
89.437   1.80000000e+02 
89.401   1.86000000e+02 
89.365   1.87000000e+02 
89.329   1.71000000e+02 
89.293   1.79000000e+02 
89.257   1.80000000e+02 
89.221   1.88000000e+02 
89.185   1.78000000e+02 
89.149   1.82000000e+02 
89.113   1.77000000e+02 
89.077   1.58000000e+02 
89.041   1.59000000e+02 
89.005   1.59000000e+02 
88.970   1.66000000e+02 
88.934   1.62000000e+02 
88.898   1.36000000e+02 
88.862   1.59000000e+02 
88.826   1.55000000e+02 
88.790   1.49000000e+02 
88.754   1.49000000e+02 
88.718   1.68000000e+02 
88.682   1.59000000e+02 
88.646   1.65000000e+02 
88.610   1.48000000e+02 
88.574   1.48000000e+02 
88.538   1.54000000e+02 
88.502   1.54000000e+02 
88.466   1.41000000e+02 
88.430   1.49000000e+02 
88.395   1.62000000e+02 
88.359   1.55000000e+02 
88.323   1.43000000e+02 
88.287   1.47000000e+02 
88.251   1.41000000e+02 
88.215   1.33000000e+02 
88.179   1.56000000e+02 
88.143   1.41000000e+02 
88.107   1.41000000e+02 
88.071   1.31000000e+02 
88.035   1.25000000e+02 
87.999   1.32000000e+02 
87.963   1.36000000e+02 
87.927   1.50000000e+02 
87.891   1.23000000e+02 
87.855   1.29000000e+02 
87.820   1.32000000e+02 
87.784   1.38000000e+02 
87.748   1.27000000e+02 
87.712   1.41000000e+02 
87.676   1.43000000e+02 
87.640   1.41000000e+02 
87.604   1.30000000e+02 
87.568   1.28000000e+02 
87.532   1.63000000e+02 
87.496   1.27000000e+02 
87.460   1.20000000e+02 
87.424   1.37000000e+02 
87.388   1.41000000e+02 
87.352   1.34000000e+02 
87.316   1.24000000e+02 
87.280   1.49000000e+02 
87.245   1.34000000e+02 
87.209   1.16000000e+02 
87.173   1.31000000e+02 
87.137   1.46000000e+02 
87.101   1.14000000e+02 
87.065   1.14000000e+02 
87.029   1.18000000e+02 
86.993   1.31000000e+02 
86.957   1.30000000e+02 
86.921   1.36000000e+02 
86.885   1.37000000e+02 
86.849   1.20000000e+02 
86.813   1.41000000e+02 
86.777   1.25000000e+02 
86.741   1.18000000e+02 
86.705   1.20000000e+02 
86.670   1.28000000e+02 
86.634   1.30000000e+02 
86.598   1.08000000e+02 
86.562   1.30000000e+02 
86.526   1.27000000e+02 
86.490   1.35000000e+02 
86.454   1.31000000e+02 
86.418   1.07000000e+02 
86.382   1.28000000e+02 
86.346   1.43000000e+02 
86.310   1.17000000e+02 
86.274   1.41000000e+02 
86.238   1.19000000e+02 
86.202   1.46000000e+02 
86.166   1.40000000e+02 
86.130   1.16000000e+02 
86.095   1.29000000e+02 
86.059   1.30000000e+02 
86.023   1.31000000e+02 

