EXPERIMENT FILE
Version = 2

[ Experiment Parameters ]
Experiment Description= <none> 
Number_of_Regions_in_Experiment= 1 

Original_File_name= C:\alexesca\data\0827_400W_39Deg_2.xps 
Instrument= HP ESCA West
Date= 08-28-2012
Time=  13:07:50

[ Layer Parameters ]
Layer_Type= XPS

[ Region 1 Parameters ]
Region_Description = Au Dithered Scan Test              
BEcenter(eV) = 91.000000
BEwidth(eV) = 10.000000
BEstep(eV) = 0.035937
Dwell_Time(sec) = 1.000000
N_o_scans = 1  
N_o_Channels = 278  
Scan_mode = 0  (DITHERED)

[ L= 1 R= 1 ]
BEcenter= 91.000  
BEwidth= -9.955  
Excitation= 1486.600
Time_p_channel= 256.000 
Size= 278
95.977   6.61000000e+02 
95.941   7.74000000e+02 
95.905   7.42000000e+02 
95.870   7.86000000e+02 
95.834   8.44000000e+02 
95.798   8.06000000e+02 
95.762   8.90000000e+02 
95.726   8.64000000e+02 
95.690   9.21000000e+02 
95.654   9.96000000e+02 
95.618   9.61000000e+02 
95.582   1.03300000e+03 
95.546   1.04400000e+03 
95.510   1.08700000e+03 
95.474   1.13000000e+03 
95.438   1.15700000e+03 
95.402   1.23900000e+03 
95.366   1.28600000e+03 
95.330   1.29700000e+03 
95.295   1.38100000e+03 
95.259   1.46900000e+03 
95.223   1.45400000e+03 
95.187   1.52100000e+03 
95.151   1.56100000e+03 
95.115   1.57100000e+03 
95.079   1.63600000e+03 
95.043   1.68000000e+03 
95.007   1.71100000e+03 
94.971   1.65900000e+03 
94.935   1.78400000e+03 
94.899   1.75000000e+03 
94.863   1.79100000e+03 
94.827   1.72100000e+03 
94.791   1.74100000e+03 
94.755   1.69600000e+03 
94.720   1.74200000e+03 
94.684   1.63200000e+03 
94.648   1.70400000e+03 
94.612   1.66100000e+03 
94.576   1.55200000e+03 
94.540   1.48900000e+03 
94.504   1.44800000e+03 
94.468   1.34200000e+03 
94.432   1.26900000e+03 
94.396   1.18800000e+03 
94.360   1.09300000e+03 
94.324   1.01000000e+03 
94.288   1.02000000e+03 
94.252   9.42000000e+02 
94.216   9.14000000e+02 
94.180   7.80000000e+02 
94.145   8.02000000e+02 
94.109   7.32000000e+02 
94.073   7.12000000e+02 
94.037   6.71000000e+02 
94.001   6.41000000e+02 
93.965   6.07000000e+02 
93.929   5.87000000e+02 
93.893   5.80000000e+02 
93.857   5.07000000e+02 
93.821   5.62000000e+02 
93.785   5.11000000e+02 
93.749   5.25000000e+02 
93.713   5.15000000e+02 
93.677   5.11000000e+02 
93.641   5.09000000e+02 
93.605   4.75000000e+02 
93.570   4.48000000e+02 
93.534   4.23000000e+02 
93.498   4.19000000e+02 
93.462   4.31000000e+02 
93.426   3.95000000e+02 
93.390   3.97000000e+02 
93.354   4.42000000e+02 
93.318   4.00000000e+02 
93.282   4.06000000e+02 
93.246   3.97000000e+02 
93.210   4.16000000e+02 
93.174   3.80000000e+02 
93.138   4.18000000e+02 
93.102   3.78000000e+02 
93.066   3.84000000e+02 
93.030   4.09000000e+02 
92.995   3.69000000e+02 
92.959   4.39000000e+02 
92.923   4.17000000e+02 
92.887   4.18000000e+02 
92.851   4.15000000e+02 
92.815   4.18000000e+02 
92.779   4.27000000e+02 
92.743   5.20000000e+02 
92.707   5.26000000e+02 
92.671   5.28000000e+02 
92.635   5.02000000e+02 
92.599   5.07000000e+02 
92.563   5.67000000e+02 
92.527   5.55000000e+02 
92.491   6.04000000e+02 
92.455   5.99000000e+02 
92.420   6.53000000e+02 
92.384   7.06000000e+02 
92.348   6.81000000e+02 
92.312   7.20000000e+02 
92.276   7.36000000e+02 
92.240   7.45000000e+02 
92.204   7.95000000e+02 
92.168   8.80000000e+02 
92.132   8.88000000e+02 
92.096   9.28000000e+02 
92.060   1.01000000e+03 
92.024   1.00000000e+03 
91.988   1.06800000e+03 
91.952   1.10900000e+03 
91.916   1.18500000e+03 
91.880   1.17100000e+03 
91.845   1.24900000e+03 
91.809   1.29800000e+03 
91.773   1.42900000e+03 
91.737   1.40500000e+03 
91.701   1.50500000e+03 
91.665   1.56400000e+03 
91.629   1.61000000e+03 
91.593   1.70000000e+03 
91.557   1.75200000e+03 
91.521   1.78000000e+03 
91.485   1.81200000e+03 
91.449   1.94400000e+03 
91.413   2.03900000e+03 
91.377   2.14400000e+03 
91.341   2.07300000e+03 
91.305   2.07500000e+03 
91.270   2.17100000e+03 
91.234   2.16500000e+03 
91.198   2.13900000e+03 
91.162   2.33700000e+03 
91.126   2.12600000e+03 
91.090   2.19900000e+03 
91.054   2.06100000e+03 
91.018   2.05100000e+03 
90.982   2.04100000e+03 
90.946   1.98600000e+03 
90.910   1.88900000e+03 
90.874   1.70600000e+03 
90.838   1.61800000e+03 
90.802   1.52900000e+03 
90.766   1.44000000e+03 
90.730   1.33800000e+03 
90.695   1.21300000e+03 
90.659   1.15600000e+03 
90.623   1.02900000e+03 
90.587   9.67000000e+02 
90.551   9.09000000e+02 
90.515   8.20000000e+02 
90.479   7.63000000e+02 
90.443   7.52000000e+02 
90.407   6.88000000e+02 
90.371   6.63000000e+02 
90.335   6.39000000e+02 
90.299   5.60000000e+02 
90.263   5.49000000e+02 
90.227   5.24000000e+02 
90.191   5.07000000e+02 
90.155   5.02000000e+02 
90.120   4.25000000e+02 
90.084   4.66000000e+02 
90.048   3.91000000e+02 
90.012   3.76000000e+02 
89.976   3.89000000e+02 
89.940   3.74000000e+02 
89.904   3.50000000e+02 
89.868   3.45000000e+02 
89.832   2.99000000e+02 
89.796   2.82000000e+02 
89.760   2.99000000e+02 
89.724   2.63000000e+02 
89.688   2.60000000e+02 
89.652   2.56000000e+02 
89.616   2.44000000e+02 
89.580   2.48000000e+02 
89.545   2.35000000e+02 
89.509   2.24000000e+02 
89.473   1.99000000e+02 
89.437   1.88000000e+02 
89.401   1.93000000e+02 
89.365   1.69000000e+02 
89.329   2.08000000e+02 
89.293   1.84000000e+02 
89.257   1.71000000e+02 
89.221   1.55000000e+02 
89.185   1.76000000e+02 
89.149   1.67000000e+02 
89.113   1.50000000e+02 
89.077   1.65000000e+02 
89.041   1.55000000e+02 
89.005   1.62000000e+02 
88.970   1.59000000e+02 
88.934   1.66000000e+02 
88.898   1.85000000e+02 
88.862   1.39000000e+02 
88.826   1.63000000e+02 
88.790   1.69000000e+02 
88.754   1.78000000e+02 
88.718   1.65000000e+02 
88.682   1.42000000e+02 
88.646   1.50000000e+02 
88.610   1.52000000e+02 
88.574   1.34000000e+02 
88.538   1.50000000e+02 
88.502   1.33000000e+02 
88.466   1.58000000e+02 
88.430   1.55000000e+02 
88.395   1.46000000e+02 
88.359   1.45000000e+02 
88.323   1.42000000e+02 
88.287   1.28000000e+02 
88.251   1.52000000e+02 
88.215   1.61000000e+02 
88.179   1.19000000e+02 
88.143   1.26000000e+02 
88.107   1.25000000e+02 
88.071   1.35000000e+02 
88.035   1.21000000e+02 
87.999   1.39000000e+02 
87.963   1.36000000e+02 
87.927   1.38000000e+02 
87.891   1.34000000e+02 
87.855   1.50000000e+02 
87.820   1.49000000e+02 
87.784   1.22000000e+02 
87.748   1.29000000e+02 
87.712   1.49000000e+02 
87.676   1.47000000e+02 
87.640   1.30000000e+02 
87.604   1.24000000e+02 
87.568   1.42000000e+02 
87.532   1.47000000e+02 
87.496   1.41000000e+02 
87.460   1.46000000e+02 
87.424   1.34000000e+02 
87.388   1.26000000e+02 
87.352   1.30000000e+02 
87.316   1.34000000e+02 
87.280   1.29000000e+02 
87.245   1.26000000e+02 
87.209   1.33000000e+02 
87.173   1.22000000e+02 
87.137   1.26000000e+02 
87.101   1.13000000e+02 
87.065   1.39000000e+02 
87.029   1.27000000e+02 
86.993   1.26000000e+02 
86.957   1.34000000e+02 
86.921   1.59000000e+02 
86.885   1.14000000e+02 
86.849   1.42000000e+02 
86.813   1.17000000e+02 
86.777   1.26000000e+02 
86.741   1.31000000e+02 
86.705   1.08000000e+02 
86.670   1.30000000e+02 
86.634   1.30000000e+02 
86.598   1.21000000e+02 
86.562   1.20000000e+02 
86.526   1.32000000e+02 
86.490   1.18000000e+02 
86.454   1.24000000e+02 
86.418   1.23000000e+02 
86.382   1.33000000e+02 
86.346   1.34000000e+02 
86.310   1.21000000e+02 
86.274   1.29000000e+02 
86.238   1.16000000e+02 
86.202   1.19000000e+02 
86.166   1.05000000e+02 
86.130   1.29000000e+02 
86.095   1.13000000e+02 
86.059   1.23000000e+02 
86.023   9.60000000e+01 

