EXPERIMENT FILE
Version = 2

[ Experiment Parameters ]
Experiment Description= <none> 
Number_of_Regions_in_Experiment= 1 

Original_File_name= C:\alexesca\data\0827_400W_35Deg_2.xps 
Instrument= HP ESCA West
Date= 08-28-2012
Time=  14:26:27

[ Layer Parameters ]
Layer_Type= XPS

[ Region 1 Parameters ]
Region_Description = Au Dithered Scan Test              
BEcenter(eV) = 91.000000
BEwidth(eV) = 10.000000
BEstep(eV) = 0.035937
Dwell_Time(sec) = 1.000000
N_o_scans = 1  
N_o_Channels = 278  
Scan_mode = 0  (DITHERED)

[ L= 1 R= 1 ]
BEcenter= 91.000  
BEwidth= -9.955  
Excitation= 1486.600
Time_p_channel= 256.000 
Size= 278
95.977   2.70000000e+02 
95.941   2.61000000e+02 
95.905   2.76000000e+02 
95.870   2.83000000e+02 
95.834   2.54000000e+02 
95.798   3.11000000e+02 
95.762   2.49000000e+02 
95.726   2.84000000e+02 
95.690   2.99000000e+02 
95.654   3.15000000e+02 
95.618   3.54000000e+02 
95.582   3.37000000e+02 
95.546   3.32000000e+02 
95.510   3.32000000e+02 
95.474   3.73000000e+02 
95.438   3.54000000e+02 
95.402   3.87000000e+02 
95.366   3.74000000e+02 
95.330   3.72000000e+02 
95.295   3.65000000e+02 
95.259   4.09000000e+02 
95.223   4.51000000e+02 
95.187   4.36000000e+02 
95.151   4.78000000e+02 
95.115   5.03000000e+02 
95.079   5.33000000e+02 
95.043   5.29000000e+02 
95.007   5.53000000e+02 
94.971   5.94000000e+02 
94.935   6.09000000e+02 
94.899   6.64000000e+02 
94.863   6.59000000e+02 
94.827   6.74000000e+02 
94.791   7.39000000e+02 
94.755   7.77000000e+02 
94.720   8.08000000e+02 
94.684   8.20000000e+02 
94.648   8.23000000e+02 
94.612   9.09000000e+02 
94.576   8.64000000e+02 
94.540   9.70000000e+02 
94.504   9.63000000e+02 
94.468   1.06500000e+03 
94.432   1.08200000e+03 
94.396   1.11400000e+03 
94.360   1.09300000e+03 
94.324   1.15400000e+03 
94.288   1.20700000e+03 
94.252   1.24900000e+03 
94.216   1.30300000e+03 
94.180   1.28800000e+03 
94.145   1.27700000e+03 
94.109   1.28700000e+03 
94.073   1.32600000e+03 
94.037   1.25100000e+03 
94.001   1.24100000e+03 
93.965   1.27100000e+03 
93.929   1.15400000e+03 
93.893   1.10700000e+03 
93.857   1.06600000e+03 
93.821   9.66000000e+02 
93.785   9.12000000e+02 
93.749   8.69000000e+02 
93.713   8.49000000e+02 
93.677   7.18000000e+02 
93.641   7.20000000e+02 
93.605   6.22000000e+02 
93.570   6.13000000e+02 
93.534   5.06000000e+02 
93.498   5.33000000e+02 
93.462   4.70000000e+02 
93.426   4.15000000e+02 
93.390   4.17000000e+02 
93.354   4.06000000e+02 
93.318   3.29000000e+02 
93.282   3.30000000e+02 
93.246   3.44000000e+02 
93.210   3.23000000e+02 
93.174   2.80000000e+02 
93.138   2.73000000e+02 
93.102   2.85000000e+02 
93.066   2.67000000e+02 
93.030   2.70000000e+02 
92.995   2.84000000e+02 
92.959   2.56000000e+02 
92.923   2.51000000e+02 
92.887   2.65000000e+02 
92.851   2.61000000e+02 
92.815   2.83000000e+02 
92.779   2.39000000e+02 
92.743   2.51000000e+02 
92.707   2.15000000e+02 
92.671   2.38000000e+02 
92.635   2.61000000e+02 
92.599   2.45000000e+02 
92.563   2.24000000e+02 
92.527   2.42000000e+02 
92.491   2.58000000e+02 
92.455   2.47000000e+02 
92.420   2.58000000e+02 
92.384   2.52000000e+02 
92.348   2.35000000e+02 
92.312   2.76000000e+02 
92.276   2.55000000e+02 
92.240   2.82000000e+02 
92.204   2.79000000e+02 
92.168   2.58000000e+02 
92.132   2.63000000e+02 
92.096   2.59000000e+02 
92.060   2.73000000e+02 
92.024   2.93000000e+02 
91.988   2.89000000e+02 
91.952   2.84000000e+02 
91.916   2.98000000e+02 
91.880   3.37000000e+02 
91.845   2.98000000e+02 
91.809   3.58000000e+02 
91.773   3.64000000e+02 
91.737   3.64000000e+02 
91.701   3.52000000e+02 
91.665   3.65000000e+02 
91.629   3.81000000e+02 
91.593   4.02000000e+02 
91.557   4.09000000e+02 
91.521   4.43000000e+02 
91.485   4.72000000e+02 
91.449   5.32000000e+02 
91.413   5.18000000e+02 
91.377   5.42000000e+02 
91.341   5.93000000e+02 
91.305   6.04000000e+02 
91.270   6.19000000e+02 
91.234   6.71000000e+02 
91.198   6.84000000e+02 
91.162   7.60000000e+02 
91.126   7.67000000e+02 
91.090   8.74000000e+02 
91.054   8.22000000e+02 
91.018   8.47000000e+02 
90.982   9.90000000e+02 
90.946   9.53000000e+02 
90.910   1.01200000e+03 
90.874   1.03500000e+03 
90.838   1.15400000e+03 
90.802   1.15000000e+03 
90.766   1.17100000e+03 
90.730   1.28900000e+03 
90.695   1.28000000e+03 
90.659   1.32800000e+03 
90.623   1.40600000e+03 
90.587   1.43900000e+03 
90.551   1.46100000e+03 
90.515   1.59000000e+03 
90.479   1.60300000e+03 
90.443   1.54200000e+03 
90.407   1.54000000e+03 
90.371   1.58500000e+03 
90.335   1.53500000e+03 
90.299   1.47100000e+03 
90.263   1.55900000e+03 
90.227   1.45100000e+03 
90.191   1.36400000e+03 
90.155   1.26900000e+03 
90.120   1.16700000e+03 
90.084   1.04000000e+03 
90.048   9.39000000e+02 
90.012   8.49000000e+02 
89.976   7.77000000e+02 
89.940   7.04000000e+02 
89.904   6.55000000e+02 
89.868   5.67000000e+02 
89.832   5.20000000e+02 
89.796   4.30000000e+02 
89.760   4.08000000e+02 
89.724   3.90000000e+02 
89.688   3.46000000e+02 
89.652   3.24000000e+02 
89.616   3.21000000e+02 
89.580   2.84000000e+02 
89.545   2.49000000e+02 
89.509   2.50000000e+02 
89.473   2.15000000e+02 
89.437   2.20000000e+02 
89.401   2.00000000e+02 
89.365   1.82000000e+02 
89.329   1.88000000e+02 
89.293   1.98000000e+02 
89.257   1.75000000e+02 
89.221   1.49000000e+02 
89.185   1.80000000e+02 
89.149   1.53000000e+02 
89.113   1.65000000e+02 
89.077   1.33000000e+02 
89.041   1.40000000e+02 
89.005   1.26000000e+02 
88.970   1.27000000e+02 
88.934   1.23000000e+02 
88.898   1.21000000e+02 
88.862   1.36000000e+02 
88.826   1.39000000e+02 
88.790   1.15000000e+02 
88.754   1.13000000e+02 
88.718   1.32000000e+02 
88.682   1.30000000e+02 
88.646   9.80000000e+01 
88.610   1.14000000e+02 
88.574   1.02000000e+02 
88.538   1.16000000e+02 
88.502   1.05000000e+02 
88.466   1.27000000e+02 
88.430   1.11000000e+02 
88.395   1.14000000e+02 
88.359   9.10000000e+01 
88.323   1.26000000e+02 
88.287   1.12000000e+02 
88.251   1.11000000e+02 
88.215   1.02000000e+02 
88.179   1.12000000e+02 
88.143   1.16000000e+02 
88.107   9.80000000e+01 
88.071   9.80000000e+01 
88.035   9.10000000e+01 
87.999   1.04000000e+02 
87.963   1.01000000e+02 
87.927   9.80000000e+01 
87.891   9.00000000e+01 
87.855   9.50000000e+01 
87.820   9.40000000e+01 
87.784   8.90000000e+01 
87.748   9.10000000e+01 
87.712   1.11000000e+02 
87.676   1.04000000e+02 
87.640   9.40000000e+01 
87.604   9.10000000e+01 
87.568   7.80000000e+01 
87.532   8.60000000e+01 
87.496   1.03000000e+02 
87.460   8.20000000e+01 
87.424   8.90000000e+01 
87.388   7.20000000e+01 
87.352   9.00000000e+01 
87.316   8.30000000e+01 
87.280   9.60000000e+01 
87.245   8.10000000e+01 
87.209   8.10000000e+01 
87.173   9.40000000e+01 
87.137   9.20000000e+01 
87.101   9.70000000e+01 
87.065   9.80000000e+01 
87.029   8.30000000e+01 
86.993   8.60000000e+01 
86.957   7.10000000e+01 
86.921   9.60000000e+01 
86.885   8.60000000e+01 
86.849   8.10000000e+01 
86.813   7.90000000e+01 
86.777   9.60000000e+01 
86.741   9.40000000e+01 
86.705   8.10000000e+01 
86.670   8.00000000e+01 
86.634   7.10000000e+01 
86.598   8.00000000e+01 
86.562   9.70000000e+01 
86.526   8.90000000e+01 
86.490   8.30000000e+01 
86.454   1.09000000e+02 
86.418   8.70000000e+01 
86.382   6.20000000e+01 
86.346   9.40000000e+01 
86.310   8.90000000e+01 
86.274   7.20000000e+01 
86.238   9.60000000e+01 
86.202   9.30000000e+01 
86.166   8.10000000e+01 
86.130   1.02000000e+02 
86.095   8.70000000e+01 
86.059   9.20000000e+01 
86.023   6.80000000e+01 

