EXPERIMENT FILE
Version = 2

[ Experiment Parameters ]
Experiment Description= <none> 
Number_of_Regions_in_Experiment= 1 

Original_File_name= C:\alexesca\data\0827_400W_38Deg_2.xps 
Instrument= HP ESCA West
Date= 08-28-2012
Time=  14:52:30

[ Layer Parameters ]
Layer_Type= XPS

[ Region 1 Parameters ]
Region_Description = Au Dithered Scan Test              
BEcenter(eV) = 91.000000
BEwidth(eV) = 10.000000
BEstep(eV) = 0.035937
Dwell_Time(sec) = 1.000000
N_o_scans = 1  
N_o_Channels = 278  
Scan_mode = 0  (DITHERED)

[ L= 1 R= 1 ]
BEcenter= 91.000  
BEwidth= -9.955  
Excitation= 1486.600
Time_p_channel= 256.000 
Size= 278
95.977   5.97000000e+02 
95.941   6.46000000e+02 
95.905   6.75000000e+02 
95.870   6.23000000e+02 
95.834   6.66000000e+02 
95.798   7.07000000e+02 
95.762   7.24000000e+02 
95.726   7.82000000e+02 
95.690   8.29000000e+02 
95.654   8.26000000e+02 
95.618   8.29000000e+02 
95.582   8.32000000e+02 
95.546   9.42000000e+02 
95.510   9.71000000e+02 
95.474   9.43000000e+02 
95.438   1.04500000e+03 
95.402   1.04600000e+03 
95.366   1.11000000e+03 
95.330   1.25200000e+03 
95.295   1.15900000e+03 
95.259   1.23800000e+03 
95.223   1.31700000e+03 
95.187   1.36000000e+03 
95.151   1.36600000e+03 
95.115   1.40500000e+03 
95.079   1.47100000e+03 
95.043   1.45200000e+03 
95.007   1.60300000e+03 
94.971   1.59000000e+03 
94.935   1.65100000e+03 
94.899   1.64700000e+03 
94.863   1.73500000e+03 
94.827   1.68900000e+03 
94.791   1.76800000e+03 
94.755   1.69400000e+03 
94.720   1.73000000e+03 
94.684   1.74600000e+03 
94.648   1.75400000e+03 
94.612   1.69500000e+03 
94.576   1.60700000e+03 
94.540   1.51200000e+03 
94.504   1.48800000e+03 
94.468   1.36000000e+03 
94.432   1.26900000e+03 
94.396   1.22900000e+03 
94.360   1.08800000e+03 
94.324   1.07300000e+03 
94.288   1.01500000e+03 
94.252   9.26000000e+02 
94.216   8.72000000e+02 
94.180   8.12000000e+02 
94.145   7.50000000e+02 
94.109   6.97000000e+02 
94.073   6.84000000e+02 
94.037   6.48000000e+02 
94.001   5.87000000e+02 
93.965   5.45000000e+02 
93.929   5.42000000e+02 
93.893   5.30000000e+02 
93.857   5.18000000e+02 
93.821   4.77000000e+02 
93.785   5.10000000e+02 
93.749   5.00000000e+02 
93.713   4.48000000e+02 
93.677   4.68000000e+02 
93.641   4.29000000e+02 
93.605   4.22000000e+02 
93.570   4.14000000e+02 
93.534   4.20000000e+02 
93.498   4.21000000e+02 
93.462   4.24000000e+02 
93.426   3.96000000e+02 
93.390   4.16000000e+02 
93.354   3.81000000e+02 
93.318   3.71000000e+02 
93.282   3.78000000e+02 
93.246   3.88000000e+02 
93.210   3.57000000e+02 
93.174   3.77000000e+02 
93.138   3.55000000e+02 
93.102   3.92000000e+02 
93.066   3.36000000e+02 
93.030   3.46000000e+02 
92.995   3.41000000e+02 
92.959   4.00000000e+02 
92.923   3.90000000e+02 
92.887   3.91000000e+02 
92.851   4.15000000e+02 
92.815   3.77000000e+02 
92.779   3.84000000e+02 
92.743   4.09000000e+02 
92.707   4.26000000e+02 
92.671   4.75000000e+02 
92.635   4.45000000e+02 
92.599   4.47000000e+02 
92.563   4.83000000e+02 
92.527   4.85000000e+02 
92.491   5.03000000e+02 
92.455   5.46000000e+02 
92.420   5.62000000e+02 
92.384   5.72000000e+02 
92.348   6.15000000e+02 
92.312   6.06000000e+02 
92.276   6.67000000e+02 
92.240   6.78000000e+02 
92.204   6.87000000e+02 
92.168   7.41000000e+02 
92.132   7.69000000e+02 
92.096   7.84000000e+02 
92.060   7.78000000e+02 
92.024   8.95000000e+02 
91.988   8.99000000e+02 
91.952   9.36000000e+02 
91.916   9.06000000e+02 
91.880   1.08900000e+03 
91.845   1.04900000e+03 
91.809   1.08500000e+03 
91.773   1.23300000e+03 
91.737   1.25000000e+03 
91.701   1.26400000e+03 
91.665   1.39600000e+03 
91.629   1.45600000e+03 
91.593   1.43500000e+03 
91.557   1.50000000e+03 
91.521   1.57500000e+03 
91.485   1.64900000e+03 
91.449   1.70100000e+03 
91.413   1.73500000e+03 
91.377   1.76200000e+03 
91.341   1.86800000e+03 
91.305   1.90300000e+03 
91.270   1.95900000e+03 
91.234   2.02600000e+03 
91.198   2.07900000e+03 
91.162   2.01100000e+03 
91.126   2.09900000e+03 
91.090   2.04400000e+03 
91.054   2.03100000e+03 
91.018   2.06400000e+03 
90.982   1.97900000e+03 
90.946   2.02900000e+03 
90.910   1.91100000e+03 
90.874   1.84600000e+03 
90.838   1.72300000e+03 
90.802   1.62900000e+03 
90.766   1.54000000e+03 
90.730   1.40900000e+03 
90.695   1.26900000e+03 
90.659   1.15400000e+03 
90.623   1.17800000e+03 
90.587   1.03100000e+03 
90.551   9.47000000e+02 
90.515   8.35000000e+02 
90.479   7.36000000e+02 
90.443   7.57000000e+02 
90.407   7.33000000e+02 
90.371   5.93000000e+02 
90.335   5.74000000e+02 
90.299   5.43000000e+02 
90.263   5.19000000e+02 
90.227   4.59000000e+02 
90.191   4.59000000e+02 
90.155   4.23000000e+02 
90.120   4.13000000e+02 
90.084   3.90000000e+02 
90.048   3.31000000e+02 
90.012   3.50000000e+02 
89.976   3.49000000e+02 
89.940   3.08000000e+02 
89.904   2.94000000e+02 
89.868   2.89000000e+02 
89.832   2.43000000e+02 
89.796   2.57000000e+02 
89.760   2.25000000e+02 
89.724   2.62000000e+02 
89.688   2.09000000e+02 
89.652   2.17000000e+02 
89.616   2.32000000e+02 
89.580   2.05000000e+02 
89.545   1.92000000e+02 
89.509   2.10000000e+02 
89.473   1.87000000e+02 
89.437   1.98000000e+02 
89.401   1.90000000e+02 
89.365   1.78000000e+02 
89.329   1.61000000e+02 
89.293   1.60000000e+02 
89.257   1.75000000e+02 
89.221   1.62000000e+02 
89.185   1.77000000e+02 
89.149   1.38000000e+02 
89.113   1.39000000e+02 
89.077   1.61000000e+02 
89.041   1.54000000e+02 
89.005   1.34000000e+02 
88.970   1.46000000e+02 
88.934   1.65000000e+02 
88.898   1.69000000e+02 
88.862   1.30000000e+02 
88.826   1.43000000e+02 
88.790   1.41000000e+02 
88.754   1.40000000e+02 
88.718   1.22000000e+02 
88.682   1.40000000e+02 
88.646   1.33000000e+02 
88.610   1.52000000e+02 
88.574   1.16000000e+02 
88.538   1.07000000e+02 
88.502   1.20000000e+02 
88.466   1.47000000e+02 
88.430   1.33000000e+02 
88.395   1.28000000e+02 
88.359   1.22000000e+02 
88.323   1.29000000e+02 
88.287   1.23000000e+02 
88.251   1.40000000e+02 
88.215   1.48000000e+02 
88.179   1.47000000e+02 
88.143   1.12000000e+02 
88.107   1.40000000e+02 
88.071   1.25000000e+02 
88.035   1.28000000e+02 
87.999   1.32000000e+02 
87.963   1.27000000e+02 
87.927   1.33000000e+02 
87.891   1.18000000e+02 
87.855   1.12000000e+02 
87.820   1.53000000e+02 
87.784   1.30000000e+02 
87.748   1.33000000e+02 
87.712   1.21000000e+02 
87.676   1.39000000e+02 
87.640   1.37000000e+02 
87.604   1.11000000e+02 
87.568   1.26000000e+02 
87.532   9.10000000e+01 
87.496   1.30000000e+02 
87.460   1.16000000e+02 
87.424   1.17000000e+02 
87.388   1.05000000e+02 
87.352   1.31000000e+02 
87.316   1.23000000e+02 
87.280   1.03000000e+02 
87.245   1.18000000e+02 
87.209   1.27000000e+02 
87.173   1.06000000e+02 
87.137   1.22000000e+02 
87.101   1.31000000e+02 
87.065   1.19000000e+02 
87.029   1.14000000e+02 
86.993   1.31000000e+02 
86.957   1.08000000e+02 
86.921   1.12000000e+02 
86.885   1.27000000e+02 
86.849   1.19000000e+02 
86.813   1.24000000e+02 
86.777   1.11000000e+02 
86.741   1.18000000e+02 
86.705   1.16000000e+02 
86.670   1.20000000e+02 
86.634   1.16000000e+02 
86.598   1.01000000e+02 
86.562   1.33000000e+02 
86.526   1.03000000e+02 
86.490   1.01000000e+02 
86.454   1.18000000e+02 
86.418   1.16000000e+02 
86.382   1.04000000e+02 
86.346   1.12000000e+02 
86.310   1.23000000e+02 
86.274   1.28000000e+02 
86.238   1.22000000e+02 
86.202   1.11000000e+02 
86.166   1.24000000e+02 
86.130   1.14000000e+02 
86.095   9.30000000e+01 
86.059   1.10000000e+02 
86.023   1.14000000e+02 

