EXPERIMENT FILE
Version = 2

[ Experiment Parameters ]
Experiment Description= <none> 
Number_of_Regions_in_Experiment= 1 

Original_File_name= C:\alexesca\data\22_04_2013_calibration\0422Au4fAngNeg10@+25.xps 
Instrument= HP ESCA West
Date= 04-22-2013
Time=  17:08:04

[ Layer Parameters ]
Layer_Type= XPS

[ Region 1 Parameters ]
Region_Description = Au 4f Dithered 92eV Center 10eV Width
BEcenter(eV) = 92.000000
BEwidth(eV) = 10.000000
BEstep(eV) = 0.035938
Dwell_Time(sec) = 1.000000
N_o_scans = 1  
N_o_Channels = 278  
Scan_mode = 0  (DITHERED)

[ L= 1 R= 1 ]
BEcenter= 92.000  
BEwidth= -9.955  
Excitation= 1486.600
Time_p_channel= 256.000 
Size= 278
96.977   7.39000000e+02 
96.941   7.32000000e+02 
96.905   8.28000000e+02 
96.870   7.74000000e+02 
96.834   8.06000000e+02 
96.798   8.28000000e+02 
96.762   8.05000000e+02 
96.726   8.64000000e+02 
96.690   9.32000000e+02 
96.654   8.84000000e+02 
96.618   9.35000000e+02 
96.582   9.21000000e+02 
96.546   9.12000000e+02 
96.510   9.80000000e+02 
96.474   9.99000000e+02 
96.438   1.03300000e+03 
96.402   1.14600000e+03 
96.366   1.15200000e+03 
96.330   1.14800000e+03 
96.295   1.22200000e+03 
96.259   1.25800000e+03 
96.223   1.21500000e+03 
96.187   1.34300000e+03 
96.151   1.33300000e+03 
96.115   1.44200000e+03 
96.079   1.41900000e+03 
96.043   1.49100000e+03 
96.007   1.50400000e+03 
95.971   1.66400000e+03 
95.935   1.66800000e+03 
95.899   1.70000000e+03 
95.863   1.89900000e+03 
95.827   1.89800000e+03 
95.791   1.98600000e+03 
95.755   2.08400000e+03 
95.720   2.18100000e+03 
95.684   2.26700000e+03 
95.648   2.34500000e+03 
95.612   2.40200000e+03 
95.576   2.53000000e+03 
95.540   2.56100000e+03 
95.504   2.74600000e+03 
95.468   2.84500000e+03 
95.432   2.85400000e+03 
95.396   3.00100000e+03 
95.360   3.12000000e+03 
95.324   3.18700000e+03 
95.288   3.43500000e+03 
95.252   3.35800000e+03 
95.216   3.53700000e+03 
95.180   3.56300000e+03 
95.145   3.56700000e+03 
95.109   3.61100000e+03 
95.073   3.71500000e+03 
95.037   3.62200000e+03 
95.001   3.69500000e+03 
94.965   3.69300000e+03 
94.929   3.65500000e+03 
94.893   3.43100000e+03 
94.857   3.43000000e+03 
94.821   3.24500000e+03 
94.785   2.96800000e+03 
94.749   2.95100000e+03 
94.713   2.70100000e+03 
94.677   2.55500000e+03 
94.641   2.29600000e+03 
94.605   2.17500000e+03 
94.570   1.86800000e+03 
94.534   1.81500000e+03 
94.498   1.56100000e+03 
94.462   1.52800000e+03 
94.426   1.40200000e+03 
94.390   1.31200000e+03 
94.354   1.17200000e+03 
94.318   1.11700000e+03 
94.282   1.08600000e+03 
94.246   9.32000000e+02 
94.210   9.58000000e+02 
94.174   8.65000000e+02 
94.138   8.54000000e+02 
94.102   8.60000000e+02 
94.066   8.22000000e+02 
94.030   7.88000000e+02 
93.995   8.08000000e+02 
93.959   7.35000000e+02 
93.923   7.45000000e+02 
93.887   7.21000000e+02 
93.851   6.79000000e+02 
93.815   7.08000000e+02 
93.779   7.37000000e+02 
93.743   7.22000000e+02 
93.707   7.29000000e+02 
93.671   6.86000000e+02 
93.635   7.36000000e+02 
93.599   7.32000000e+02 
93.563   7.15000000e+02 
93.527   7.18000000e+02 
93.491   7.03000000e+02 
93.455   7.57000000e+02 
93.420   6.97000000e+02 
93.384   7.24000000e+02 
93.348   7.28000000e+02 
93.312   6.75000000e+02 
93.276   7.68000000e+02 
93.240   7.21000000e+02 
93.204   7.57000000e+02 
93.168   7.94000000e+02 
93.132   8.19000000e+02 
93.096   8.58000000e+02 
93.060   8.85000000e+02 
93.024   8.41000000e+02 
92.988   9.04000000e+02 
92.952   9.27000000e+02 
92.916   9.15000000e+02 
92.880   9.25000000e+02 
92.845   1.00600000e+03 
92.809   1.06000000e+03 
92.773   1.04700000e+03 
92.737   1.05500000e+03 
92.701   1.18000000e+03 
92.665   1.24400000e+03 
92.629   1.23000000e+03 
92.593   1.21000000e+03 
92.557   1.34500000e+03 
92.521   1.37900000e+03 
92.485   1.45400000e+03 
92.449   1.53100000e+03 
92.413   1.65100000e+03 
92.377   1.63600000e+03 
92.341   1.64200000e+03 
92.305   1.78200000e+03 
92.270   1.94100000e+03 
92.234   1.88600000e+03 
92.198   2.06100000e+03 
92.162   2.15200000e+03 
92.126   2.23800000e+03 
92.090   2.39000000e+03 
92.054   2.47600000e+03 
92.018   2.56000000e+03 
91.982   2.66800000e+03 
91.946   2.72500000e+03 
91.910   3.01700000e+03 
91.874   3.13300000e+03 
91.838   3.27500000e+03 
91.802   3.34200000e+03 
91.766   3.56400000e+03 
91.730   3.70300000e+03 
91.695   3.84400000e+03 
91.659   3.84300000e+03 
91.623   3.98200000e+03 
91.587   4.15800000e+03 
91.551   4.19000000e+03 
91.515   4.44800000e+03 
91.479   4.34400000e+03 
91.443   4.42200000e+03 
91.407   4.59600000e+03 
91.371   4.56000000e+03 
91.335   4.49600000e+03 
91.299   4.31500000e+03 
91.263   4.42900000e+03 
91.227   4.14100000e+03 
91.191   4.17100000e+03 
91.155   3.95600000e+03 
91.120   3.57800000e+03 
91.084   3.27400000e+03 
91.048   3.15700000e+03 
91.012   2.81700000e+03 
90.976   2.57400000e+03 
90.940   2.29800000e+03 
90.904   2.05900000e+03 
90.868   1.88000000e+03 
90.832   1.65300000e+03 
90.796   1.40400000e+03 
90.760   1.34000000e+03 
90.724   1.19500000e+03 
90.688   1.07100000e+03 
90.652   9.64000000e+02 
90.616   8.88000000e+02 
90.580   8.38000000e+02 
90.545   7.45000000e+02 
90.509   7.28000000e+02 
90.473   6.91000000e+02 
90.437   6.26000000e+02 
90.401   5.91000000e+02 
90.365   5.71000000e+02 
90.329   5.40000000e+02 
90.293   5.40000000e+02 
90.257   5.31000000e+02 
90.221   4.60000000e+02 
90.185   4.67000000e+02 
90.149   4.52000000e+02 
90.113   4.64000000e+02 
90.077   4.28000000e+02 
90.041   4.40000000e+02 
90.005   4.18000000e+02 
89.970   4.07000000e+02 
89.934   4.10000000e+02 
89.898   4.11000000e+02 
89.862   3.62000000e+02 
89.826   3.81000000e+02 
89.790   3.84000000e+02 
89.754   3.62000000e+02 
89.718   3.75000000e+02 
89.682   3.33000000e+02 
89.646   3.75000000e+02 
89.610   3.63000000e+02 
89.574   3.03000000e+02 
89.538   3.09000000e+02 
89.502   3.24000000e+02 
89.466   3.62000000e+02 
89.430   3.20000000e+02 
89.395   3.13000000e+02 
89.359   3.30000000e+02 
89.323   3.06000000e+02 
89.287   3.03000000e+02 
89.251   3.30000000e+02 
89.215   3.19000000e+02 
89.179   3.21000000e+02 
89.143   3.02000000e+02 
89.107   2.89000000e+02 
89.071   3.08000000e+02 
89.035   2.80000000e+02 
88.999   2.79000000e+02 
88.963   2.98000000e+02 
88.927   2.80000000e+02 
88.891   2.87000000e+02 
88.855   2.95000000e+02 
88.820   2.87000000e+02 
88.784   2.61000000e+02 
88.748   2.63000000e+02 
88.712   2.96000000e+02 
88.676   3.15000000e+02 
88.640   2.81000000e+02 
88.604   2.76000000e+02 
88.568   2.70000000e+02 
88.532   2.96000000e+02 
88.496   2.58000000e+02 
88.460   2.56000000e+02 
88.424   2.75000000e+02 
88.388   2.75000000e+02 
88.352   2.71000000e+02 
88.316   2.66000000e+02 
88.280   2.82000000e+02 
88.245   2.69000000e+02 
88.209   2.52000000e+02 
88.173   2.58000000e+02 
88.137   2.55000000e+02 
88.101   2.72000000e+02 
88.065   2.47000000e+02 
88.029   2.54000000e+02 
87.993   2.73000000e+02 
87.957   2.27000000e+02 
87.921   3.00000000e+02 
87.885   2.50000000e+02 
87.849   2.52000000e+02 
87.813   2.58000000e+02 
87.777   2.81000000e+02 
87.741   2.76000000e+02 
87.705   2.69000000e+02 
87.670   2.68000000e+02 
87.634   2.64000000e+02 
87.598   2.55000000e+02 
87.562   2.65000000e+02 
87.526   2.51000000e+02 
87.490   2.45000000e+02 
87.454   2.56000000e+02 
87.418   2.59000000e+02 
87.382   2.73000000e+02 
87.346   2.65000000e+02 
87.310   2.31000000e+02 
87.274   2.61000000e+02 
87.238   2.36000000e+02 
87.202   2.24000000e+02 
87.166   2.39000000e+02 
87.130   2.26000000e+02 
87.095   2.29000000e+02 
87.059   2.55000000e+02 
87.023   2.63000000e+02 

