EXPERIMENT FILE
Version = 2

[ Experiment Parameters ]
Experiment Description= <none> 
Number_of_Regions_in_Experiment= 1 

Original_File_name= C:\alexesca\data\130422 calibration\0422Au4fAngNeg00@+25.xps 
Instrument= HP ESCA West
Date= 04-22-2013
Time=  16:28:56

[ Layer Parameters ]
Layer_Type= XPS

[ Region 1 Parameters ]
Region_Description = Au 4f Dithered 92eV Center 10eV Width
BEcenter(eV) = 92.000000
BEwidth(eV) = 10.000000
BEstep(eV) = 0.035938
Dwell_Time(sec) = 1.000000
N_o_scans = 1  
N_o_Channels = 278  
Scan_mode = 0  (DITHERED)

[ L= 1 R= 1 ]
BEcenter= 92.000  
BEwidth= -9.955  
Excitation= 1486.600
Time_p_channel= 256.000 
Size= 278
96.977   1.15700000e+03 
96.941   1.14500000e+03 
96.905   1.25600000e+03 
96.870   1.27300000e+03 
96.834   1.29500000e+03 
96.798   1.36200000e+03 
96.762   1.28500000e+03 
96.726   1.26300000e+03 
96.690   1.40100000e+03 
96.654   1.41500000e+03 
96.618   1.41000000e+03 
96.582   1.46200000e+03 
96.546   1.51000000e+03 
96.510   1.57100000e+03 
96.474   1.65000000e+03 
96.438   1.71500000e+03 
96.402   1.73300000e+03 
96.366   1.72500000e+03 
96.330   1.83600000e+03 
96.295   1.86400000e+03 
96.259   1.91300000e+03 
96.223   1.93000000e+03 
96.187   2.01700000e+03 
96.151   2.10400000e+03 
96.115   2.11700000e+03 
96.079   2.27700000e+03 
96.043   2.35900000e+03 
96.007   2.36400000e+03 
95.971   2.57700000e+03 
95.935   2.54200000e+03 
95.899   2.66200000e+03 
95.863   2.74400000e+03 
95.827   2.85600000e+03 
95.791   2.92300000e+03 
95.755   3.07700000e+03 
95.720   3.22000000e+03 
95.684   3.29800000e+03 
95.648   3.27700000e+03 
95.612   3.49600000e+03 
95.576   3.54600000e+03 
95.540   3.67500000e+03 
95.504   3.74800000e+03 
95.468   3.86600000e+03 
95.432   3.97800000e+03 
95.396   4.15500000e+03 
95.360   4.30900000e+03 
95.324   4.50700000e+03 
95.288   4.48400000e+03 
95.252   4.57600000e+03 
95.216   4.66700000e+03 
95.180   4.75600000e+03 
95.145   4.83100000e+03 
95.109   4.88300000e+03 
95.073   5.01400000e+03 
95.037   4.89000000e+03 
95.001   4.90800000e+03 
94.965   4.91500000e+03 
94.929   4.92400000e+03 
94.893   4.77400000e+03 
94.857   4.72200000e+03 
94.821   4.60600000e+03 
94.785   4.34100000e+03 
94.749   4.17600000e+03 
94.713   4.12400000e+03 
94.677   3.76800000e+03 
94.641   3.47700000e+03 
94.605   3.23800000e+03 
94.570   3.07700000e+03 
94.534   2.80700000e+03 
94.498   2.59300000e+03 
94.462   2.39600000e+03 
94.426   2.22100000e+03 
94.390   2.07700000e+03 
94.354   1.86100000e+03 
94.318   1.64700000e+03 
94.282   1.66300000e+03 
94.246   1.56800000e+03 
94.210   1.41100000e+03 
94.174   1.32700000e+03 
94.138   1.28700000e+03 
94.102   1.26000000e+03 
94.066   1.19700000e+03 
94.030   1.17700000e+03 
93.995   1.20000000e+03 
93.959   1.03800000e+03 
93.923   1.12000000e+03 
93.887   1.07400000e+03 
93.851   1.13400000e+03 
93.815   1.11500000e+03 
93.779   1.07100000e+03 
93.743   1.02600000e+03 
93.707   1.08300000e+03 
93.671   1.03300000e+03 
93.635   1.07400000e+03 
93.599   1.09300000e+03 
93.563   1.09200000e+03 
93.527   1.10000000e+03 
93.491   1.04100000e+03 
93.455   1.09000000e+03 
93.420   1.07100000e+03 
93.384   1.12900000e+03 
93.348   1.10800000e+03 
93.312   1.14800000e+03 
93.276   1.13100000e+03 
93.240   1.18500000e+03 
93.204   1.23400000e+03 
93.168   1.19700000e+03 
93.132   1.20400000e+03 
93.096   1.28200000e+03 
93.060   1.31100000e+03 
93.024   1.41600000e+03 
92.988   1.42300000e+03 
92.952   1.44700000e+03 
92.916   1.47900000e+03 
92.880   1.48300000e+03 
92.845   1.53100000e+03 
92.809   1.65200000e+03 
92.773   1.67900000e+03 
92.737   1.77700000e+03 
92.701   1.83100000e+03 
92.665   1.91400000e+03 
92.629   2.07100000e+03 
92.593   1.97000000e+03 
92.557   2.06300000e+03 
92.521   2.14300000e+03 
92.485   2.31500000e+03 
92.449   2.40100000e+03 
92.413   2.46600000e+03 
92.377   2.45500000e+03 
92.341   2.63600000e+03 
92.305   2.73700000e+03 
92.270   2.75200000e+03 
92.234   2.97200000e+03 
92.198   3.12200000e+03 
92.162   3.13300000e+03 
92.126   3.30500000e+03 
92.090   3.38000000e+03 
92.054   3.59200000e+03 
92.018   3.81300000e+03 
91.982   3.85100000e+03 
91.946   4.04900000e+03 
91.910   4.10800000e+03 
91.874   4.35000000e+03 
91.838   4.47000000e+03 
91.802   4.62000000e+03 
91.766   4.89200000e+03 
91.730   4.91600000e+03 
91.695   5.13800000e+03 
91.659   5.16000000e+03 
91.623   5.47500000e+03 
91.587   5.38100000e+03 
91.551   5.62000000e+03 
91.515   5.62700000e+03 
91.479   5.72700000e+03 
91.443   6.09000000e+03 
91.407   6.02900000e+03 
91.371   5.98900000e+03 
91.335   5.95500000e+03 
91.299   5.94600000e+03 
91.263   5.84300000e+03 
91.227   5.71300000e+03 
91.191   5.71600000e+03 
91.155   5.36900000e+03 
91.120   5.32600000e+03 
91.084   4.95600000e+03 
91.048   4.67400000e+03 
91.012   4.40700000e+03 
90.976   4.01800000e+03 
90.940   3.79500000e+03 
90.904   3.45900000e+03 
90.868   3.14200000e+03 
90.832   2.85000000e+03 
90.796   2.58500000e+03 
90.760   2.35100000e+03 
90.724   2.09400000e+03 
90.688   1.86900000e+03 
90.652   1.66800000e+03 
90.616   1.58100000e+03 
90.580   1.45100000e+03 
90.545   1.25900000e+03 
90.509   1.16900000e+03 
90.473   1.01900000e+03 
90.437   9.55000000e+02 
90.401   9.37000000e+02 
90.365   8.82000000e+02 
90.329   8.33000000e+02 
90.293   7.62000000e+02 
90.257   7.13000000e+02 
90.221   6.91000000e+02 
90.185   6.94000000e+02 
90.149   6.68000000e+02 
90.113   6.21000000e+02 
90.077   6.33000000e+02 
90.041   5.92000000e+02 
90.005   5.95000000e+02 
89.970   5.46000000e+02 
89.934   5.52000000e+02 
89.898   5.53000000e+02 
89.862   5.48000000e+02 
89.826   5.58000000e+02 
89.790   5.21000000e+02 
89.754   5.37000000e+02 
89.718   5.07000000e+02 
89.682   5.16000000e+02 
89.646   4.75000000e+02 
89.610   4.33000000e+02 
89.574   4.62000000e+02 
89.538   4.91000000e+02 
89.502   4.82000000e+02 
89.466   4.56000000e+02 
89.430   4.39000000e+02 
89.395   4.58000000e+02 
89.359   4.17000000e+02 
89.323   4.47000000e+02 
89.287   4.06000000e+02 
89.251   4.20000000e+02 
89.215   4.39000000e+02 
89.179   4.01000000e+02 
89.143   3.98000000e+02 
89.107   3.68000000e+02 
89.071   4.19000000e+02 
89.035   4.05000000e+02 
88.999   4.05000000e+02 
88.963   3.90000000e+02 
88.927   3.97000000e+02 
88.891   3.84000000e+02 
88.855   3.86000000e+02 
88.820   3.62000000e+02 
88.784   3.36000000e+02 
88.748   3.73000000e+02 
88.712   3.69000000e+02 
88.676   3.77000000e+02 
88.640   3.72000000e+02 
88.604   3.99000000e+02 
88.568   4.01000000e+02 
88.532   3.97000000e+02 
88.496   4.20000000e+02 
88.460   3.22000000e+02 
88.424   3.51000000e+02 
88.388   3.73000000e+02 
88.352   3.52000000e+02 
88.316   3.39000000e+02 
88.280   3.88000000e+02 
88.245   3.47000000e+02 
88.209   3.60000000e+02 
88.173   3.81000000e+02 
88.137   3.25000000e+02 
88.101   3.31000000e+02 
88.065   3.56000000e+02 
88.029   3.26000000e+02 
87.993   3.23000000e+02 
87.957   3.44000000e+02 
87.921   3.36000000e+02 
87.885   3.10000000e+02 
87.849   3.32000000e+02 
87.813   3.44000000e+02 
87.777   3.63000000e+02 
87.741   3.34000000e+02 
87.705   3.90000000e+02 
87.670   3.32000000e+02 
87.634   3.03000000e+02 
87.598   3.03000000e+02 
87.562   3.39000000e+02 
87.526   2.99000000e+02 
87.490   3.37000000e+02 
87.454   3.46000000e+02 
87.418   3.28000000e+02 
87.382   3.54000000e+02 
87.346   3.26000000e+02 
87.310   3.57000000e+02 
87.274   3.23000000e+02 
87.238   3.21000000e+02 
87.202   3.27000000e+02 
87.166   3.28000000e+02 
87.130   3.33000000e+02 
87.095   3.52000000e+02 
87.059   3.45000000e+02 
87.023   3.34000000e+02 

