EXPERIMENT FILE
Version = 2

[ Experiment Parameters ]
Experiment Description= <none> 
Number_of_Regions_in_Experiment= 1 

Original_File_name= C:\alexesca\data\130422 calibration\0422Au4fAngNeg25@+25.xps 
Instrument= HP ESCA West
Date= 04-22-2013
Time=  16:39:36

[ Layer Parameters ]
Layer_Type= XPS

[ Region 1 Parameters ]
Region_Description = Au 4f Dithered 92eV Center 10eV Width
BEcenter(eV) = 92.000000
BEwidth(eV) = 10.000000
BEstep(eV) = 0.035938
Dwell_Time(sec) = 1.000000
N_o_scans = 1  
N_o_Channels = 278  
Scan_mode = 0  (DITHERED)

[ L= 1 R= 1 ]
BEcenter= 92.000  
BEwidth= -9.955  
Excitation= 1486.600
Time_p_channel= 256.000 
Size= 278
96.977   3.47000000e+02 
96.941   3.69000000e+02 
96.905   3.75000000e+02 
96.870   3.46000000e+02 
96.834   3.70000000e+02 
96.798   3.81000000e+02 
96.762   3.82000000e+02 
96.726   3.93000000e+02 
96.690   3.96000000e+02 
96.654   3.93000000e+02 
96.618   3.77000000e+02 
96.582   4.17000000e+02 
96.546   4.05000000e+02 
96.510   4.55000000e+02 
96.474   3.98000000e+02 
96.438   4.47000000e+02 
96.402   4.20000000e+02 
96.366   4.25000000e+02 
96.330   4.61000000e+02 
96.295   4.63000000e+02 
96.259   4.80000000e+02 
96.223   5.13000000e+02 
96.187   5.21000000e+02 
96.151   5.40000000e+02 
96.115   5.73000000e+02 
96.079   5.82000000e+02 
96.043   5.73000000e+02 
96.007   6.34000000e+02 
95.971   6.67000000e+02 
95.935   6.78000000e+02 
95.899   6.94000000e+02 
95.863   7.09000000e+02 
95.827   7.80000000e+02 
95.791   7.68000000e+02 
95.755   8.29000000e+02 
95.720   8.19000000e+02 
95.684   8.77000000e+02 
95.648   9.01000000e+02 
95.612   9.85000000e+02 
95.576   1.02700000e+03 
95.540   1.11000000e+03 
95.504   1.05700000e+03 
95.468   1.16800000e+03 
95.432   1.29700000e+03 
95.396   1.31800000e+03 
95.360   1.39200000e+03 
95.324   1.39900000e+03 
95.288   1.51800000e+03 
95.252   1.53700000e+03 
95.216   1.60200000e+03 
95.180   1.73400000e+03 
95.145   1.74100000e+03 
95.109   1.78300000e+03 
95.073   1.80800000e+03 
95.037   1.82500000e+03 
95.001   1.87900000e+03 
94.965   1.89800000e+03 
94.929   1.84500000e+03 
94.893   1.87400000e+03 
94.857   1.83500000e+03 
94.821   1.76900000e+03 
94.785   1.75000000e+03 
94.749   1.66900000e+03 
94.713   1.53800000e+03 
94.677   1.45300000e+03 
94.641   1.30900000e+03 
94.605   1.23200000e+03 
94.570   1.14900000e+03 
94.534   1.03000000e+03 
94.498   9.40000000e+02 
94.462   8.20000000e+02 
94.426   7.26000000e+02 
94.390   7.23000000e+02 
94.354   6.48000000e+02 
94.318   5.87000000e+02 
94.282   5.82000000e+02 
94.246   5.15000000e+02 
94.210   4.78000000e+02 
94.174   5.01000000e+02 
94.138   4.67000000e+02 
94.102   4.32000000e+02 
94.066   4.25000000e+02 
94.030   4.14000000e+02 
93.995   4.16000000e+02 
93.959   4.03000000e+02 
93.923   3.75000000e+02 
93.887   3.83000000e+02 
93.851   3.84000000e+02 
93.815   3.58000000e+02 
93.779   3.34000000e+02 
93.743   3.74000000e+02 
93.707   3.63000000e+02 
93.671   3.64000000e+02 
93.635   3.49000000e+02 
93.599   3.44000000e+02 
93.563   3.48000000e+02 
93.527   3.55000000e+02 
93.491   3.18000000e+02 
93.455   3.08000000e+02 
93.420   3.59000000e+02 
93.384   3.24000000e+02 
93.348   3.34000000e+02 
93.312   3.12000000e+02 
93.276   3.23000000e+02 
93.240   3.38000000e+02 
93.204   3.05000000e+02 
93.168   3.17000000e+02 
93.132   3.63000000e+02 
93.096   3.52000000e+02 
93.060   3.57000000e+02 
93.024   3.44000000e+02 
92.988   3.88000000e+02 
92.952   3.93000000e+02 
92.916   3.89000000e+02 
92.880   3.84000000e+02 
92.845   3.92000000e+02 
92.809   4.18000000e+02 
92.773   3.85000000e+02 
92.737   4.13000000e+02 
92.701   4.43000000e+02 
92.665   4.57000000e+02 
92.629   4.95000000e+02 
92.593   4.90000000e+02 
92.557   4.93000000e+02 
92.521   5.16000000e+02 
92.485   4.95000000e+02 
92.449   5.54000000e+02 
92.413   6.14000000e+02 
92.377   6.55000000e+02 
92.341   6.09000000e+02 
92.305   6.80000000e+02 
92.270   6.68000000e+02 
92.234   7.04000000e+02 
92.198   7.54000000e+02 
92.162   8.25000000e+02 
92.126   9.24000000e+02 
92.090   9.02000000e+02 
92.054   9.65000000e+02 
92.018   1.04800000e+03 
91.982   1.04200000e+03 
91.946   1.13300000e+03 
91.910   1.14800000e+03 
91.874   1.22000000e+03 
91.838   1.30300000e+03 
91.802   1.38800000e+03 
91.766   1.40400000e+03 
91.730   1.47400000e+03 
91.695   1.57300000e+03 
91.659   1.66700000e+03 
91.623   1.66000000e+03 
91.587   1.82800000e+03 
91.551   1.84500000e+03 
91.515   1.89400000e+03 
91.479   2.01800000e+03 
91.443   2.08500000e+03 
91.407   2.06200000e+03 
91.371   2.20400000e+03 
91.335   2.20200000e+03 
91.299   2.29600000e+03 
91.263   2.25800000e+03 
91.227   2.08500000e+03 
91.191   2.22500000e+03 
91.155   2.26900000e+03 
91.120   2.06600000e+03 
91.084   1.96500000e+03 
91.048   1.83700000e+03 
91.012   1.68200000e+03 
90.976   1.61000000e+03 
90.940   1.47200000e+03 
90.904   1.20300000e+03 
90.868   1.21000000e+03 
90.832   1.13800000e+03 
90.796   9.21000000e+02 
90.760   7.90000000e+02 
90.724   7.39000000e+02 
90.688   6.54000000e+02 
90.652   6.43000000e+02 
90.616   5.53000000e+02 
90.580   4.99000000e+02 
90.545   4.55000000e+02 
90.509   4.06000000e+02 
90.473   3.88000000e+02 
90.437   3.59000000e+02 
90.401   3.32000000e+02 
90.365   2.97000000e+02 
90.329   2.83000000e+02 
90.293   2.94000000e+02 
90.257   2.71000000e+02 
90.221   2.53000000e+02 
90.185   2.85000000e+02 
90.149   2.30000000e+02 
90.113   2.35000000e+02 
90.077   2.33000000e+02 
90.041   2.29000000e+02 
90.005   2.24000000e+02 
89.970   2.51000000e+02 
89.934   2.29000000e+02 
89.898   2.04000000e+02 
89.862   2.06000000e+02 
89.826   1.93000000e+02 
89.790   2.00000000e+02 
89.754   2.01000000e+02 
89.718   1.93000000e+02 
89.682   1.74000000e+02 
89.646   1.90000000e+02 
89.610   1.84000000e+02 
89.574   1.69000000e+02 
89.538   1.71000000e+02 
89.502   1.73000000e+02 
89.466   1.87000000e+02 
89.430   1.67000000e+02 
89.395   1.77000000e+02 
89.359   1.71000000e+02 
89.323   1.62000000e+02 
89.287   1.82000000e+02 
89.251   1.57000000e+02 
89.215   1.56000000e+02 
89.179   1.51000000e+02 
89.143   1.53000000e+02 
89.107   1.56000000e+02 
89.071   1.71000000e+02 
89.035   1.47000000e+02 
88.999   1.40000000e+02 
88.963   1.55000000e+02 
88.927   1.41000000e+02 
88.891   1.71000000e+02 
88.855   1.58000000e+02 
88.820   1.67000000e+02 
88.784   1.58000000e+02 
88.748   1.69000000e+02 
88.712   1.45000000e+02 
88.676   1.57000000e+02 
88.640   1.51000000e+02 
88.604   1.58000000e+02 
88.568   1.65000000e+02 
88.532   1.53000000e+02 
88.496   1.58000000e+02 
88.460   1.22000000e+02 
88.424   1.73000000e+02 
88.388   1.37000000e+02 
88.352   1.51000000e+02 
88.316   1.64000000e+02 
88.280   1.28000000e+02 
88.245   1.59000000e+02 
88.209   1.53000000e+02 
88.173   1.26000000e+02 
88.137   1.54000000e+02 
88.101   1.42000000e+02 
88.065   1.46000000e+02 
88.029   1.41000000e+02 
87.993   1.38000000e+02 
87.957   1.36000000e+02 
87.921   1.37000000e+02 
87.885   1.32000000e+02 
87.849   1.30000000e+02 
87.813   1.26000000e+02 
87.777   1.23000000e+02 
87.741   1.39000000e+02 
87.705   1.55000000e+02 
87.670   1.74000000e+02 
87.634   1.28000000e+02 
87.598   1.45000000e+02 
87.562   1.42000000e+02 
87.526   1.47000000e+02 
87.490   1.40000000e+02 
87.454   1.24000000e+02 
87.418   1.42000000e+02 
87.382   1.43000000e+02 
87.346   1.35000000e+02 
87.310   1.40000000e+02 
87.274   1.43000000e+02 
87.238   1.42000000e+02 
87.202   1.24000000e+02 
87.166   1.27000000e+02 
87.130   1.32000000e+02 
87.095   1.26000000e+02 
87.059   1.60000000e+02 
87.023   1.45000000e+02 

