EXPERIMENT FILE
Version = 2

[ Experiment Parameters ]
Experiment Description= <none> 
Number_of_Regions_in_Experiment= 1 

Original_File_name= C:\alexesca\data\130422 calibration\0422Au4fAngNeg00.xps 
Instrument= HP ESCA West
Date= 04-22-2013
Time=  16:10:56

[ Layer Parameters ]
Layer_Type= XPS

[ Region 1 Parameters ]
Region_Description = Au 4f Dithered 92eV Center 10eV Width
BEcenter(eV) = 92.000000
BEwidth(eV) = 10.000000
BEstep(eV) = 0.035937
Dwell_Time(sec) = 1.000000
N_o_scans = 1  
N_o_Channels = 278  
Scan_mode = 0  (DITHERED)

[ L= 1 R= 1 ]
BEcenter= 92.000  
BEwidth= -9.955  
Excitation= 1486.600
Time_p_channel= 256.000 
Size= 278
96.977   1.08700000e+03 
96.941   1.09300000e+03 
96.905   1.10300000e+03 
96.870   1.10800000e+03 
96.834   1.12600000e+03 
96.798   1.20900000e+03 
96.762   1.23200000e+03 
96.726   1.24100000e+03 
96.690   1.25700000e+03 
96.654   1.26500000e+03 
96.618   1.29700000e+03 
96.582   1.31500000e+03 
96.546   1.27800000e+03 
96.510   1.39800000e+03 
96.474   1.39800000e+03 
96.438   1.44600000e+03 
96.402   1.47100000e+03 
96.366   1.58700000e+03 
96.330   1.47800000e+03 
96.295   1.71300000e+03 
96.259   1.65300000e+03 
96.223   1.77600000e+03 
96.187   1.81800000e+03 
96.151   1.89300000e+03 
96.115   1.82900000e+03 
96.079   1.89000000e+03 
96.043   2.10900000e+03 
96.007   2.13500000e+03 
95.971   2.16000000e+03 
95.935   2.37800000e+03 
95.899   2.36900000e+03 
95.863   2.43300000e+03 
95.827   2.47300000e+03 
95.791   2.65200000e+03 
95.755   2.68500000e+03 
95.720   2.81300000e+03 
95.684   2.93700000e+03 
95.648   3.04300000e+03 
95.612   3.14300000e+03 
95.576   3.19400000e+03 
95.540   3.34500000e+03 
95.504   3.46100000e+03 
95.468   3.66300000e+03 
95.432   3.73700000e+03 
95.396   3.78000000e+03 
95.360   3.88700000e+03 
95.324   3.93900000e+03 
95.288   4.16300000e+03 
95.252   4.29100000e+03 
95.216   4.32200000e+03 
95.180   4.46300000e+03 
95.145   4.59700000e+03 
95.109   4.63400000e+03 
95.073   4.58200000e+03 
95.037   4.76800000e+03 
95.001   4.74300000e+03 
94.965   4.76500000e+03 
94.929   4.84800000e+03 
94.893   4.87400000e+03 
94.857   4.69400000e+03 
94.821   4.63100000e+03 
94.785   4.56100000e+03 
94.749   4.51400000e+03 
94.713   4.39700000e+03 
94.677   4.06600000e+03 
94.641   4.08000000e+03 
94.605   3.75600000e+03 
94.570   3.59800000e+03 
94.534   3.36600000e+03 
94.498   3.05300000e+03 
94.462   2.90900000e+03 
94.426   2.70100000e+03 
94.390   2.43800000e+03 
94.354   2.16800000e+03 
94.318   2.07300000e+03 
94.282   1.86100000e+03 
94.246   1.73500000e+03 
94.210   1.61300000e+03 
94.174   1.53200000e+03 
94.138   1.47400000e+03 
94.102   1.37300000e+03 
94.066   1.32500000e+03 
94.030   1.18200000e+03 
93.995   1.22700000e+03 
93.959   1.14500000e+03 
93.923   1.10300000e+03 
93.887   1.07900000e+03 
93.851   1.07700000e+03 
93.815   9.96000000e+02 
93.779   1.03200000e+03 
93.743   1.13000000e+03 
93.707   1.02000000e+03 
93.671   9.98000000e+02 
93.635   1.00200000e+03 
93.599   1.02400000e+03 
93.563   1.01100000e+03 
93.527   1.00900000e+03 
93.491   1.06800000e+03 
93.455   1.07300000e+03 
93.420   1.02200000e+03 
93.384   1.04600000e+03 
93.348   1.04200000e+03 
93.312   1.00700000e+03 
93.276   1.03500000e+03 
93.240   1.11900000e+03 
93.204   1.11600000e+03 
93.168   1.11700000e+03 
93.132   1.15900000e+03 
93.096   1.19500000e+03 
93.060   1.22200000e+03 
93.024   1.22900000e+03 
92.988   1.26100000e+03 
92.952   1.29100000e+03 
92.916   1.28600000e+03 
92.880   1.38600000e+03 
92.845   1.40200000e+03 
92.809   1.46400000e+03 
92.773   1.46900000e+03 
92.737   1.54400000e+03 
92.701   1.61700000e+03 
92.665   1.71900000e+03 
92.629   1.67300000e+03 
92.593   1.72400000e+03 
92.557   1.81200000e+03 
92.521   1.83800000e+03 
92.485   2.01500000e+03 
92.449   2.00300000e+03 
92.413   2.14600000e+03 
92.377   2.21700000e+03 
92.341   2.31400000e+03 
92.305   2.42500000e+03 
92.270   2.39000000e+03 
92.234   2.57700000e+03 
92.198   2.73400000e+03 
92.162   2.79700000e+03 
92.126   2.98600000e+03 
92.090   3.07000000e+03 
92.054   3.09300000e+03 
92.018   3.29500000e+03 
91.982   3.42200000e+03 
91.946   3.67200000e+03 
91.910   3.68500000e+03 
91.874   3.89800000e+03 
91.838   3.89100000e+03 
91.802   4.13400000e+03 
91.766   4.26500000e+03 
91.730   4.38100000e+03 
91.695   4.56300000e+03 
91.659   4.71400000e+03 
91.623   4.79900000e+03 
91.587   4.98600000e+03 
91.551   5.26700000e+03 
91.515   5.44500000e+03 
91.479   5.43000000e+03 
91.443   5.63800000e+03 
91.407   5.61300000e+03 
91.371   5.68700000e+03 
91.335   5.66800000e+03 
91.299   5.89300000e+03 
91.263   5.76700000e+03 
91.227   5.69100000e+03 
91.191   5.77800000e+03 
91.155   5.70800000e+03 
91.120   5.46800000e+03 
91.084   5.39600000e+03 
91.048   5.19200000e+03 
91.012   4.90000000e+03 
90.976   4.74000000e+03 
90.940   4.49400000e+03 
90.904   4.07000000e+03 
90.868   3.76300000e+03 
90.832   3.52400000e+03 
90.796   3.16100000e+03 
90.760   2.92600000e+03 
90.724   2.69100000e+03 
90.688   2.26600000e+03 
90.652   2.10900000e+03 
90.616   1.91700000e+03 
90.580   1.72900000e+03 
90.545   1.51800000e+03 
90.509   1.41000000e+03 
90.473   1.27800000e+03 
90.437   1.15400000e+03 
90.401   1.09700000e+03 
90.365   9.91000000e+02 
90.329   9.04000000e+02 
90.293   8.73000000e+02 
90.257   8.43000000e+02 
90.221   7.14000000e+02 
90.185   7.45000000e+02 
90.149   7.91000000e+02 
90.113   6.80000000e+02 
90.077   6.89000000e+02 
90.041   6.41000000e+02 
90.005   6.02000000e+02 
89.970   6.00000000e+02 
89.934   5.69000000e+02 
89.898   5.20000000e+02 
89.862   5.50000000e+02 
89.826   5.08000000e+02 
89.790   5.17000000e+02 
89.754   5.44000000e+02 
89.718   4.95000000e+02 
89.682   4.68000000e+02 
89.646   4.83000000e+02 
89.610   4.84000000e+02 
89.574   4.68000000e+02 
89.538   4.55000000e+02 
89.502   4.65000000e+02 
89.466   4.56000000e+02 
89.430   4.53000000e+02 
89.395   4.92000000e+02 
89.359   4.42000000e+02 
89.323   4.61000000e+02 
89.287   4.54000000e+02 
89.251   4.35000000e+02 
89.215   4.02000000e+02 
89.179   3.98000000e+02 
89.143   4.08000000e+02 
89.107   3.92000000e+02 
89.071   4.19000000e+02 
89.035   4.05000000e+02 
88.999   4.17000000e+02 
88.963   3.60000000e+02 
88.927   3.81000000e+02 
88.891   3.87000000e+02 
88.855   3.71000000e+02 
88.820   3.56000000e+02 
88.784   4.01000000e+02 
88.748   3.94000000e+02 
88.712   3.70000000e+02 
88.676   3.72000000e+02 
88.640   3.70000000e+02 
88.604   3.33000000e+02 
88.568   3.68000000e+02 
88.532   3.82000000e+02 
88.496   3.51000000e+02 
88.460   3.71000000e+02 
88.424   3.81000000e+02 
88.388   3.47000000e+02 
88.352   3.60000000e+02 
88.316   3.41000000e+02 
88.280   3.24000000e+02 
88.245   3.50000000e+02 
88.209   3.90000000e+02 
88.173   3.69000000e+02 
88.137   3.15000000e+02 
88.101   3.90000000e+02 
88.065   3.25000000e+02 
88.029   3.66000000e+02 
87.993   3.40000000e+02 
87.957   3.26000000e+02 
87.921   3.25000000e+02 
87.885   3.66000000e+02 
87.849   3.23000000e+02 
87.813   3.52000000e+02 
87.777   3.43000000e+02 
87.741   3.40000000e+02 
87.705   3.44000000e+02 
87.670   3.30000000e+02 
87.634   3.30000000e+02 
87.598   3.35000000e+02 
87.562   3.41000000e+02 
87.526   3.37000000e+02 
87.490   3.18000000e+02 
87.454   3.22000000e+02 
87.418   3.27000000e+02 
87.382   3.49000000e+02 
87.346   3.18000000e+02 
87.310   3.43000000e+02 
87.274   3.45000000e+02 
87.238   3.35000000e+02 
87.202   3.43000000e+02 
87.166   3.10000000e+02 
87.130   3.30000000e+02 
87.095   3.43000000e+02 
87.059   3.43000000e+02 
87.023   3.33000000e+02 

