EXPERIMENT FILE
Version = 2

[ Experiment Parameters ]
Experiment Description= <none> 
Number_of_Regions_in_Experiment= 1 

Original_File_name= C:\alexesca\data\130422 calibration\0422Au4fAngNeg25.xps 
Instrument= HP ESCA West
Date= 04-22-2013
Time=  15:47:46

[ Layer Parameters ]
Layer_Type= XPS

[ Region 1 Parameters ]
Region_Description = Au 4f Dithered 92eV Center 10eV Width
BEcenter(eV) = 92.000000
BEwidth(eV) = 10.000000
BEstep(eV) = 0.035937
Dwell_Time(sec) = 1.000000
N_o_scans = 1  
N_o_Channels = 278  
Scan_mode = 0  (DITHERED)

[ L= 1 R= 1 ]
BEcenter= 92.000  
BEwidth= -9.955  
Excitation= 1486.600
Time_p_channel= 256.000 
Size= 278
96.977   3.69000000e+02 
96.941   3.24000000e+02 
96.905   3.46000000e+02 
96.870   3.51000000e+02 
96.834   3.27000000e+02 
96.798   3.35000000e+02 
96.762   3.50000000e+02 
96.726   3.49000000e+02 
96.690   3.62000000e+02 
96.654   3.65000000e+02 
96.618   3.89000000e+02 
96.582   3.61000000e+02 
96.546   3.53000000e+02 
96.510   4.11000000e+02 
96.474   3.95000000e+02 
96.438   4.15000000e+02 
96.402   4.11000000e+02 
96.366   4.53000000e+02 
96.330   4.43000000e+02 
96.295   4.59000000e+02 
96.259   4.78000000e+02 
96.223   4.68000000e+02 
96.187   4.88000000e+02 
96.151   4.60000000e+02 
96.115   5.17000000e+02 
96.079   5.11000000e+02 
96.043   6.00000000e+02 
96.007   5.43000000e+02 
95.971   6.21000000e+02 
95.935   5.86000000e+02 
95.899   6.24000000e+02 
95.863   6.70000000e+02 
95.827   7.36000000e+02 
95.791   7.25000000e+02 
95.755   7.71000000e+02 
95.720   8.12000000e+02 
95.684   8.28000000e+02 
95.648   9.12000000e+02 
95.612   9.94000000e+02 
95.576   9.80000000e+02 
95.540   9.97000000e+02 
95.504   1.07100000e+03 
95.468   1.14400000e+03 
95.432   1.20400000e+03 
95.396   1.27900000e+03 
95.360   1.27100000e+03 
95.324   1.38200000e+03 
95.288   1.42300000e+03 
95.252   1.39500000e+03 
95.216   1.61100000e+03 
95.180   1.54300000e+03 
95.145   1.51000000e+03 
95.109   1.71200000e+03 
95.073   1.71100000e+03 
95.037   1.68400000e+03 
95.001   1.76300000e+03 
94.965   1.77800000e+03 
94.929   1.74300000e+03 
94.893   1.76900000e+03 
94.857   1.66300000e+03 
94.821   1.74700000e+03 
94.785   1.57600000e+03 
94.749   1.48800000e+03 
94.713   1.35500000e+03 
94.677   1.31600000e+03 
94.641   1.24100000e+03 
94.605   1.15000000e+03 
94.570   1.06900000e+03 
94.534   9.86000000e+02 
94.498   8.84000000e+02 
94.462   8.23000000e+02 
94.426   8.26000000e+02 
94.390   7.01000000e+02 
94.354   6.75000000e+02 
94.318   6.24000000e+02 
94.282   5.61000000e+02 
94.246   5.37000000e+02 
94.210   5.08000000e+02 
94.174   4.62000000e+02 
94.138   4.31000000e+02 
94.102   4.14000000e+02 
94.066   4.04000000e+02 
94.030   3.85000000e+02 
93.995   3.96000000e+02 
93.959   3.81000000e+02 
93.923   3.78000000e+02 
93.887   3.76000000e+02 
93.851   3.84000000e+02 
93.815   3.59000000e+02 
93.779   3.42000000e+02 
93.743   3.69000000e+02 
93.707   3.53000000e+02 
93.671   3.23000000e+02 
93.635   3.23000000e+02 
93.599   3.18000000e+02 
93.563   3.26000000e+02 
93.527   3.09000000e+02 
93.491   3.06000000e+02 
93.455   3.10000000e+02 
93.420   3.20000000e+02 
93.384   3.20000000e+02 
93.348   3.34000000e+02 
93.312   3.40000000e+02 
93.276   3.24000000e+02 
93.240   3.42000000e+02 
93.204   3.43000000e+02 
93.168   3.09000000e+02 
93.132   3.23000000e+02 
93.096   3.35000000e+02 
93.060   3.10000000e+02 
93.024   3.19000000e+02 
92.988   3.55000000e+02 
92.952   3.62000000e+02 
92.916   3.86000000e+02 
92.880   3.64000000e+02 
92.845   4.04000000e+02 
92.809   3.73000000e+02 
92.773   3.55000000e+02 
92.737   3.82000000e+02 
92.701   4.16000000e+02 
92.665   4.43000000e+02 
92.629   4.55000000e+02 
92.593   4.65000000e+02 
92.557   4.82000000e+02 
92.521   4.40000000e+02 
92.485   5.19000000e+02 
92.449   5.19000000e+02 
92.413   5.49000000e+02 
92.377   5.66000000e+02 
92.341   5.85000000e+02 
92.305   6.17000000e+02 
92.270   6.87000000e+02 
92.234   7.02000000e+02 
92.198   7.03000000e+02 
92.162   7.66000000e+02 
92.126   7.50000000e+02 
92.090   8.50000000e+02 
92.054   8.87000000e+02 
92.018   9.11000000e+02 
91.982   1.00500000e+03 
91.946   1.02300000e+03 
91.910   1.10500000e+03 
91.874   1.20300000e+03 
91.838   1.19100000e+03 
91.802   1.25600000e+03 
91.766   1.37300000e+03 
91.730   1.35100000e+03 
91.695   1.58500000e+03 
91.659   1.57100000e+03 
91.623   1.60500000e+03 
91.587   1.69300000e+03 
91.551   1.83600000e+03 
91.515   1.93400000e+03 
91.479   1.88100000e+03 
91.443   2.03100000e+03 
91.407   2.08800000e+03 
91.371   2.18000000e+03 
91.335   2.15100000e+03 
91.299   2.13100000e+03 
91.263   2.12200000e+03 
91.227   2.10900000e+03 
91.191   2.13500000e+03 
91.155   2.08600000e+03 
91.120   2.00300000e+03 
91.084   1.97500000e+03 
91.048   1.82400000e+03 
91.012   1.72600000e+03 
90.976   1.64800000e+03 
90.940   1.45400000e+03 
90.904   1.31200000e+03 
90.868   1.17700000e+03 
90.832   1.12400000e+03 
90.796   9.67000000e+02 
90.760   9.01000000e+02 
90.724   7.69000000e+02 
90.688   6.73000000e+02 
90.652   6.08000000e+02 
90.616   5.46000000e+02 
90.580   4.80000000e+02 
90.545   4.65000000e+02 
90.509   4.09000000e+02 
90.473   3.75000000e+02 
90.437   3.72000000e+02 
90.401   3.58000000e+02 
90.365   3.10000000e+02 
90.329   2.92000000e+02 
90.293   2.96000000e+02 
90.257   2.70000000e+02 
90.221   2.84000000e+02 
90.185   2.55000000e+02 
90.149   2.37000000e+02 
90.113   2.66000000e+02 
90.077   2.34000000e+02 
90.041   2.19000000e+02 
90.005   2.05000000e+02 
89.970   2.31000000e+02 
89.934   2.17000000e+02 
89.898   2.25000000e+02 
89.862   2.07000000e+02 
89.826   1.86000000e+02 
89.790   2.00000000e+02 
89.754   2.13000000e+02 
89.718   2.12000000e+02 
89.682   1.92000000e+02 
89.646   1.80000000e+02 
89.610   1.57000000e+02 
89.574   2.03000000e+02 
89.538   1.78000000e+02 
89.502   1.64000000e+02 
89.466   1.67000000e+02 
89.430   1.73000000e+02 
89.395   1.55000000e+02 
89.359   1.67000000e+02 
89.323   1.71000000e+02 
89.287   1.41000000e+02 
89.251   1.54000000e+02 
89.215   1.51000000e+02 
89.179   1.70000000e+02 
89.143   1.50000000e+02 
89.107   1.51000000e+02 
89.071   1.77000000e+02 
89.035   1.37000000e+02 
88.999   1.52000000e+02 
88.963   1.51000000e+02 
88.927   1.55000000e+02 
88.891   1.40000000e+02 
88.855   1.17000000e+02 
88.820   1.57000000e+02 
88.784   1.75000000e+02 
88.748   1.55000000e+02 
88.712   1.47000000e+02 
88.676   1.25000000e+02 
88.640   1.28000000e+02 
88.604   1.39000000e+02 
88.568   1.50000000e+02 
88.532   1.43000000e+02 
88.496   1.26000000e+02 
88.460   1.38000000e+02 
88.424   1.24000000e+02 
88.388   1.82000000e+02 
88.352   1.32000000e+02 
88.316   1.50000000e+02 
88.280   1.47000000e+02 
88.245   1.47000000e+02 
88.209   1.37000000e+02 
88.173   1.56000000e+02 
88.137   1.30000000e+02 
88.101   1.36000000e+02 
88.065   1.50000000e+02 
88.029   1.48000000e+02 
87.993   1.57000000e+02 
87.957   1.43000000e+02 
87.921   1.24000000e+02 
87.885   1.25000000e+02 
87.849   1.51000000e+02 
87.813   1.57000000e+02 
87.777   1.20000000e+02 
87.741   1.38000000e+02 
87.705   1.24000000e+02 
87.670   1.35000000e+02 
87.634   1.30000000e+02 
87.598   1.62000000e+02 
87.562   1.38000000e+02 
87.526   1.42000000e+02 
87.490   1.36000000e+02 
87.454   1.06000000e+02 
87.418   1.39000000e+02 
87.382   1.20000000e+02 
87.346   1.17000000e+02 
87.310   1.05000000e+02 
87.274   1.31000000e+02 
87.238   1.42000000e+02 
87.202   1.27000000e+02 
87.166   1.27000000e+02 
87.130   1.40000000e+02 
87.095   1.27000000e+02 
87.059   1.18000000e+02 
87.023   1.28000000e+02 

