EXPERIMENT FILE
Version = 2

[ Experiment Parameters ]
Experiment Description= <none> 
Number_of_Regions_in_Experiment= 1 

Original_File_name= C:\alexesca\data\Calibration\23_04_2013_ calibration\0422Au4fAngNeg00@+25.5.xps 
Instrument= HP ESCA West
Date= 04-23-2013
Time=  13:09:27

[ Layer Parameters ]
Layer_Type= XPS

[ Region 1 Parameters ]
Region_Description = Au 4f Dithered 92eV Center 10eV Width
BEcenter(eV) = 92.000000
BEwidth(eV) = 10.000000
BEstep(eV) = 0.035937
Dwell_Time(sec) = 1.000000
N_o_scans = 1  
N_o_Channels = 278  
Scan_mode = 0  (DITHERED)

[ L= 1 R= 1 ]
BEcenter= 92.000  
BEwidth= -9.955  
Excitation= 1486.600
Time_p_channel= 256.000 
Size= 278
96.977   1.04200000e+03 
96.941   1.05700000e+03 
96.905   1.08000000e+03 
96.870   1.12300000e+03 
96.834   1.11200000e+03 
96.798   1.09300000e+03 
96.762   1.11600000e+03 
96.726   1.15800000e+03 
96.690   1.18100000e+03 
96.654   1.14100000e+03 
96.618   1.16000000e+03 
96.582   1.24200000e+03 
96.546   1.28300000e+03 
96.510   1.29200000e+03 
96.474   1.28800000e+03 
96.438   1.30100000e+03 
96.402   1.41200000e+03 
96.366   1.33100000e+03 
96.330   1.49600000e+03 
96.295   1.46100000e+03 
96.259   1.58500000e+03 
96.223   1.59800000e+03 
96.187   1.67700000e+03 
96.151   1.74800000e+03 
96.115   1.63200000e+03 
96.079   1.77900000e+03 
96.043   1.84400000e+03 
96.007   1.94600000e+03 
95.971   1.91900000e+03 
95.935   2.02000000e+03 
95.899   2.08900000e+03 
95.863   2.10600000e+03 
95.827   2.20200000e+03 
95.791   2.27900000e+03 
95.755   2.38600000e+03 
95.720   2.46600000e+03 
95.684   2.55700000e+03 
95.648   2.50400000e+03 
95.612   2.73800000e+03 
95.576   2.74600000e+03 
95.540   2.77300000e+03 
95.504   2.95800000e+03 
95.468   3.05900000e+03 
95.432   3.11700000e+03 
95.396   3.24600000e+03 
95.360   3.33800000e+03 
95.324   3.47900000e+03 
95.288   3.47500000e+03 
95.252   3.74300000e+03 
95.216   3.81000000e+03 
95.180   3.81600000e+03 
95.145   4.05000000e+03 
95.109   3.96200000e+03 
95.073   4.10200000e+03 
95.037   4.26400000e+03 
95.001   4.27500000e+03 
94.965   4.35700000e+03 
94.929   4.49100000e+03 
94.893   4.58900000e+03 
94.857   4.59500000e+03 
94.821   4.69700000e+03 
94.785   4.50900000e+03 
94.749   4.60700000e+03 
94.713   4.66300000e+03 
94.677   4.58200000e+03 
94.641   4.59400000e+03 
94.605   4.56600000e+03 
94.570   4.37400000e+03 
94.534   4.08100000e+03 
94.498   4.06200000e+03 
94.462   3.84500000e+03 
94.426   3.64100000e+03 
94.390   3.42200000e+03 
94.354   3.12900000e+03 
94.318   2.92900000e+03 
94.282   2.82000000e+03 
94.246   2.57800000e+03 
94.210   2.42000000e+03 
94.174   2.20100000e+03 
94.138   2.02000000e+03 
94.102   1.84800000e+03 
94.066   1.75100000e+03 
94.030   1.65800000e+03 
93.995   1.47600000e+03 
93.959   1.45600000e+03 
93.923   1.37400000e+03 
93.887   1.30800000e+03 
93.851   1.28800000e+03 
93.815   1.22200000e+03 
93.779   1.21200000e+03 
93.743   1.11200000e+03 
93.707   1.09200000e+03 
93.671   1.09900000e+03 
93.635   1.06400000e+03 
93.599   1.02600000e+03 
93.563   1.05600000e+03 
93.527   1.07800000e+03 
93.491   1.01700000e+03 
93.455   1.02400000e+03 
93.420   1.07500000e+03 
93.384   1.00900000e+03 
93.348   1.07700000e+03 
93.312   9.96000000e+02 
93.276   1.09900000e+03 
93.240   1.00700000e+03 
93.204   1.08000000e+03 
93.168   1.06000000e+03 
93.132   1.05800000e+03 
93.096   1.10400000e+03 
93.060   1.15700000e+03 
93.024   1.14900000e+03 
92.988   1.22400000e+03 
92.952   1.17200000e+03 
92.916   1.27500000e+03 
92.880   1.21000000e+03 
92.845   1.36300000e+03 
92.809   1.28500000e+03 
92.773   1.32300000e+03 
92.737   1.40500000e+03 
92.701   1.38200000e+03 
92.665   1.45200000e+03 
92.629   1.52400000e+03 
92.593   1.60700000e+03 
92.557   1.65800000e+03 
92.521   1.73800000e+03 
92.485   1.77000000e+03 
92.449   1.80600000e+03 
92.413   1.97400000e+03 
92.377   2.08900000e+03 
92.341   2.06200000e+03 
92.305   2.04200000e+03 
92.270   2.18100000e+03 
92.234   2.28500000e+03 
92.198   2.40200000e+03 
92.162   2.35500000e+03 
92.126   2.56500000e+03 
92.090   2.56200000e+03 
92.054   2.82100000e+03 
92.018   2.83100000e+03 
91.982   2.87800000e+03 
91.946   3.10800000e+03 
91.910   3.17000000e+03 
91.874   3.30100000e+03 
91.838   3.32200000e+03 
91.802   3.43600000e+03 
91.766   3.56600000e+03 
91.730   3.73600000e+03 
91.695   3.88800000e+03 
91.659   4.04600000e+03 
91.623   4.19000000e+03 
91.587   4.28900000e+03 
91.551   4.53200000e+03 
91.515   4.74600000e+03 
91.479   4.78200000e+03 
91.443   4.80000000e+03 
91.407   4.99100000e+03 
91.371   5.03900000e+03 
91.335   5.22000000e+03 
91.299   5.36300000e+03 
91.263   5.49000000e+03 
91.227   5.38900000e+03 
91.191   5.55200000e+03 
91.155   5.57400000e+03 
91.120   5.60500000e+03 
91.084   5.70700000e+03 
91.048   5.60400000e+03 
91.012   5.38100000e+03 
90.976   5.31700000e+03 
90.940   5.24900000e+03 
90.904   5.10100000e+03 
90.868   4.90600000e+03 
90.832   4.58800000e+03 
90.796   4.44000000e+03 
90.760   4.31700000e+03 
90.724   4.10300000e+03 
90.688   3.60400000e+03 
90.652   3.40800000e+03 
90.616   3.10700000e+03 
90.580   2.79000000e+03 
90.545   2.55400000e+03 
90.509   2.36400000e+03 
90.473   2.05600000e+03 
90.437   1.90100000e+03 
90.401   1.69900000e+03 
90.365   1.58600000e+03 
90.329   1.38700000e+03 
90.293   1.20700000e+03 
90.257   1.16200000e+03 
90.221   1.02800000e+03 
90.185   9.69000000e+02 
90.149   9.30000000e+02 
90.113   8.69000000e+02 
90.077   8.01000000e+02 
90.041   7.68000000e+02 
90.005   7.08000000e+02 
89.970   7.05000000e+02 
89.934   6.75000000e+02 
89.898   6.88000000e+02 
89.862   6.19000000e+02 
89.826   5.70000000e+02 
89.790   6.27000000e+02 
89.754   5.79000000e+02 
89.718   5.26000000e+02 
89.682   5.50000000e+02 
89.646   5.49000000e+02 
89.610   5.54000000e+02 
89.574   5.42000000e+02 
89.538   4.95000000e+02 
89.502   4.68000000e+02 
89.466   4.70000000e+02 
89.430   4.75000000e+02 
89.395   4.96000000e+02 
89.359   4.63000000e+02 
89.323   4.52000000e+02 
89.287   4.54000000e+02 
89.251   4.34000000e+02 
89.215   4.15000000e+02 
89.179   4.23000000e+02 
89.143   4.51000000e+02 
89.107   4.41000000e+02 
89.071   4.31000000e+02 
89.035   4.54000000e+02 
88.999   4.07000000e+02 
88.963   4.03000000e+02 
88.927   3.75000000e+02 
88.891   4.17000000e+02 
88.855   3.95000000e+02 
88.820   3.85000000e+02 
88.784   4.03000000e+02 
88.748   3.92000000e+02 
88.712   3.66000000e+02 
88.676   3.54000000e+02 
88.640   3.65000000e+02 
88.604   3.88000000e+02 
88.568   4.09000000e+02 
88.532   3.54000000e+02 
88.496   3.75000000e+02 
88.460   3.66000000e+02 
88.424   3.90000000e+02 
88.388   3.85000000e+02 
88.352   3.51000000e+02 
88.316   3.35000000e+02 
88.280   3.59000000e+02 
88.245   3.61000000e+02 
88.209   3.47000000e+02 
88.173   3.59000000e+02 
88.137   3.84000000e+02 
88.101   3.46000000e+02 
88.065   3.34000000e+02 
88.029   3.73000000e+02 
87.993   3.15000000e+02 
87.957   3.75000000e+02 
87.921   3.39000000e+02 
87.885   3.57000000e+02 
87.849   3.86000000e+02 
87.813   3.55000000e+02 
87.777   3.22000000e+02 
87.741   3.51000000e+02 
87.705   3.24000000e+02 
87.670   3.62000000e+02 
87.634   3.49000000e+02 
87.598   3.02000000e+02 
87.562   3.38000000e+02 
87.526   3.44000000e+02 
87.490   3.40000000e+02 
87.454   3.54000000e+02 
87.418   3.30000000e+02 
87.382   3.61000000e+02 
87.346   3.49000000e+02 
87.310   3.25000000e+02 
87.274   3.45000000e+02 
87.238   3.22000000e+02 
87.202   3.42000000e+02 
87.166   3.45000000e+02 
87.130   3.33000000e+02 
87.095   3.21000000e+02 
87.059   3.23000000e+02 
87.023   3.57000000e+02 

