EXPERIMENT FILE
Version = 2

[ Experiment Parameters ]
Experiment Description= <none> 
Number_of_Regions_in_Experiment= 1 

Original_File_name= C:\alexesca\data\Calibration\23_04_2013_ calibration\0423Au4fAngNeg10@+25.5.xps 
Instrument= HP ESCA West
Date= 04-23-2013
Time=  17:28:29

[ Layer Parameters ]
Layer_Type= XPS

[ Region 1 Parameters ]
Region_Description = Au 4f Dithered 92eV Center 10eV Width
BEcenter(eV) = 92.000000
BEwidth(eV) = 10.000000
BEstep(eV) = 0.035937
Dwell_Time(sec) = 1.000000
N_o_scans = 1  
N_o_Channels = 278  
Scan_mode = 0  (DITHERED)

[ L= 1 R= 1 ]
BEcenter= 92.000  
BEwidth= -9.955  
Excitation= 1486.600
Time_p_channel= 256.000 
Size= 278
96.977   7.18000000e+02 
96.941   6.76000000e+02 
96.905   7.71000000e+02 
96.870   7.40000000e+02 
96.834   7.67000000e+02 
96.798   8.19000000e+02 
96.762   8.19000000e+02 
96.726   7.73000000e+02 
96.690   7.96000000e+02 
96.654   8.24000000e+02 
96.618   8.14000000e+02 
96.582   8.08000000e+02 
96.546   8.52000000e+02 
96.510   9.08000000e+02 
96.474   9.15000000e+02 
96.438   8.73000000e+02 
96.402   9.20000000e+02 
96.366   9.68000000e+02 
96.330   9.54000000e+02 
96.295   1.01700000e+03 
96.259   9.74000000e+02 
96.223   9.83000000e+02 
96.187   1.01700000e+03 
96.151   1.06800000e+03 
96.115   1.13800000e+03 
96.079   1.21000000e+03 
96.043   1.13800000e+03 
96.007   1.20700000e+03 
95.971   1.25300000e+03 
95.935   1.33300000e+03 
95.899   1.27600000e+03 
95.863   1.39700000e+03 
95.827   1.40400000e+03 
95.791   1.48800000e+03 
95.755   1.56600000e+03 
95.720   1.62200000e+03 
95.684   1.59500000e+03 
95.648   1.75600000e+03 
95.612   1.77500000e+03 
95.576   1.83600000e+03 
95.540   1.97900000e+03 
95.504   1.93800000e+03 
95.468   2.11600000e+03 
95.432   2.21800000e+03 
95.396   2.26000000e+03 
95.360   2.28800000e+03 
95.324   2.43900000e+03 
95.288   2.54600000e+03 
95.252   2.63800000e+03 
95.216   2.65900000e+03 
95.180   2.81900000e+03 
95.145   2.99400000e+03 
95.109   3.11500000e+03 
95.073   3.05700000e+03 
95.037   3.20600000e+03 
95.001   3.35800000e+03 
94.965   3.35100000e+03 
94.929   3.48500000e+03 
94.893   3.53900000e+03 
94.857   3.48900000e+03 
94.821   3.79100000e+03 
94.785   3.78500000e+03 
94.749   3.78100000e+03 
94.713   3.73900000e+03 
94.677   3.71100000e+03 
94.641   3.72400000e+03 
94.605   3.58100000e+03 
94.570   3.55800000e+03 
94.534   3.47500000e+03 
94.498   3.23900000e+03 
94.462   3.09200000e+03 
94.426   2.93700000e+03 
94.390   2.82900000e+03 
94.354   2.53500000e+03 
94.318   2.33600000e+03 
94.282   2.19600000e+03 
94.246   1.90500000e+03 
94.210   1.78000000e+03 
94.174   1.58900000e+03 
94.138   1.54200000e+03 
94.102   1.43300000e+03 
94.066   1.32600000e+03 
94.030   1.19000000e+03 
93.995   1.11900000e+03 
93.959   1.05100000e+03 
93.923   1.01300000e+03 
93.887   9.22000000e+02 
93.851   9.42000000e+02 
93.815   9.00000000e+02 
93.779   8.62000000e+02 
93.743   8.21000000e+02 
93.707   8.66000000e+02 
93.671   7.79000000e+02 
93.635   7.86000000e+02 
93.599   7.79000000e+02 
93.563   7.70000000e+02 
93.527   7.34000000e+02 
93.491   7.16000000e+02 
93.455   7.18000000e+02 
93.420   7.50000000e+02 
93.384   7.09000000e+02 
93.348   7.56000000e+02 
93.312   7.53000000e+02 
93.276   7.50000000e+02 
93.240   7.72000000e+02 
93.204   7.31000000e+02 
93.168   7.20000000e+02 
93.132   7.26000000e+02 
93.096   7.26000000e+02 
93.060   7.38000000e+02 
93.024   7.83000000e+02 
92.988   7.40000000e+02 
92.952   8.22000000e+02 
92.916   7.82000000e+02 
92.880   8.36000000e+02 
92.845   8.16000000e+02 
92.809   8.51000000e+02 
92.773   8.82000000e+02 
92.737   9.23000000e+02 
92.701   9.40000000e+02 
92.665   9.41000000e+02 
92.629   1.02000000e+03 
92.593   9.97000000e+02 
92.557   9.93000000e+02 
92.521   1.07000000e+03 
92.485   1.08000000e+03 
92.449   1.16500000e+03 
92.413   1.15300000e+03 
92.377   1.22600000e+03 
92.341   1.27700000e+03 
92.305   1.27800000e+03 
92.270   1.38600000e+03 
92.234   1.43800000e+03 
92.198   1.49700000e+03 
92.162   1.51800000e+03 
92.126   1.63100000e+03 
92.090   1.72300000e+03 
92.054   1.76500000e+03 
92.018   1.72500000e+03 
91.982   1.84800000e+03 
91.946   2.05000000e+03 
91.910   2.07800000e+03 
91.874   2.14400000e+03 
91.838   2.21500000e+03 
91.802   2.34400000e+03 
91.766   2.48400000e+03 
91.730   2.56100000e+03 
91.695   2.68600000e+03 
91.659   2.79200000e+03 
91.623   2.92000000e+03 
91.587   2.96500000e+03 
91.551   3.16900000e+03 
91.515   3.23900000e+03 
91.479   3.35800000e+03 
91.443   3.42200000e+03 
91.407   3.61100000e+03 
91.371   3.79500000e+03 
91.335   3.90700000e+03 
91.299   4.05700000e+03 
91.263   4.26800000e+03 
91.227   4.30300000e+03 
91.191   4.42200000e+03 
91.155   4.46200000e+03 
91.120   4.38600000e+03 
91.084   4.40900000e+03 
91.048   4.63100000e+03 
91.012   4.40700000e+03 
90.976   4.48300000e+03 
90.940   4.50700000e+03 
90.904   4.17900000e+03 
90.868   4.13400000e+03 
90.832   3.89400000e+03 
90.796   3.61400000e+03 
90.760   3.35600000e+03 
90.724   3.16100000e+03 
90.688   2.89500000e+03 
90.652   2.61200000e+03 
90.616   2.46900000e+03 
90.580   2.26000000e+03 
90.545   1.93100000e+03 
90.509   1.75300000e+03 
90.473   1.61800000e+03 
90.437   1.40500000e+03 
90.401   1.25700000e+03 
90.365   1.13900000e+03 
90.329   1.06900000e+03 
90.293   9.63000000e+02 
90.257   8.90000000e+02 
90.221   7.79000000e+02 
90.185   7.41000000e+02 
90.149   6.77000000e+02 
90.113   6.94000000e+02 
90.077   6.29000000e+02 
90.041   5.93000000e+02 
90.005   5.45000000e+02 
89.970   5.74000000e+02 
89.934   5.50000000e+02 
89.898   5.02000000e+02 
89.862   4.78000000e+02 
89.826   4.93000000e+02 
89.790   4.79000000e+02 
89.754   4.38000000e+02 
89.718   4.15000000e+02 
89.682   4.03000000e+02 
89.646   4.13000000e+02 
89.610   4.05000000e+02 
89.574   3.91000000e+02 
89.538   3.79000000e+02 
89.502   3.95000000e+02 
89.466   3.73000000e+02 
89.430   3.71000000e+02 
89.395   3.42000000e+02 
89.359   3.54000000e+02 
89.323   3.58000000e+02 
89.287   3.85000000e+02 
89.251   3.18000000e+02 
89.215   3.54000000e+02 
89.179   3.37000000e+02 
89.143   3.27000000e+02 
89.107   3.49000000e+02 
89.071   3.09000000e+02 
89.035   2.94000000e+02 
88.999   3.07000000e+02 
88.963   2.99000000e+02 
88.927   3.21000000e+02 
88.891   2.97000000e+02 
88.855   3.42000000e+02 
88.820   2.87000000e+02 
88.784   3.22000000e+02 
88.748   2.97000000e+02 
88.712   3.19000000e+02 
88.676   2.99000000e+02 
88.640   3.18000000e+02 
88.604   3.04000000e+02 
88.568   3.08000000e+02 
88.532   3.08000000e+02 
88.496   2.84000000e+02 
88.460   2.95000000e+02 
88.424   2.88000000e+02 
88.388   3.36000000e+02 
88.352   2.47000000e+02 
88.316   3.04000000e+02 
88.280   2.63000000e+02 
88.245   2.57000000e+02 
88.209   2.75000000e+02 
88.173   2.59000000e+02 
88.137   2.94000000e+02 
88.101   2.95000000e+02 
88.065   2.35000000e+02 
88.029   2.71000000e+02 
87.993   2.57000000e+02 
87.957   2.56000000e+02 
87.921   2.72000000e+02 
87.885   2.50000000e+02 
87.849   2.89000000e+02 
87.813   2.68000000e+02 
87.777   2.81000000e+02 
87.741   2.59000000e+02 
87.705   2.81000000e+02 
87.670   2.77000000e+02 
87.634   2.68000000e+02 
87.598   2.92000000e+02 
87.562   2.63000000e+02 
87.526   2.65000000e+02 
87.490   2.56000000e+02 
87.454   2.34000000e+02 
87.418   2.44000000e+02 
87.382   2.59000000e+02 
87.346   2.49000000e+02 
87.310   2.84000000e+02 
87.274   2.65000000e+02 
87.238   2.63000000e+02 
87.202   2.69000000e+02 
87.166   2.62000000e+02 
87.130   2.33000000e+02 
87.095   2.59000000e+02 
87.059   2.33000000e+02 
87.023   2.73000000e+02 

