EXPERIMENT FILE
Version = 2

[ Experiment Parameters ]
Experiment Description= <none> 
Number_of_Regions_in_Experiment= 1 

Original_File_name= C:\alexesca\data\Calibration\23_04_2013_ calibration\0422Au4fAngNeg20@+25.5.xps 
Instrument= HP ESCA West
Date= 04-23-2013
Time=  13:20:11

[ Layer Parameters ]
Layer_Type= XPS

[ Region 1 Parameters ]
Region_Description = Au 4f Dithered 92eV Center 10eV Width
BEcenter(eV) = 92.000000
BEwidth(eV) = 10.000000
BEstep(eV) = 0.035938
Dwell_Time(sec) = 1.000000
N_o_scans = 1  
N_o_Channels = 278  
Scan_mode = 0  (DITHERED)

[ L= 1 R= 1 ]
BEcenter= 92.000  
BEwidth= -9.955  
Excitation= 1486.600
Time_p_channel= 256.000 
Size= 278
96.977   4.77000000e+02 
96.941   4.73000000e+02 
96.905   4.83000000e+02 
96.870   5.07000000e+02 
96.834   4.47000000e+02 
96.798   4.84000000e+02 
96.762   4.41000000e+02 
96.726   4.98000000e+02 
96.690   4.48000000e+02 
96.654   5.12000000e+02 
96.618   5.19000000e+02 
96.582   5.27000000e+02 
96.546   4.96000000e+02 
96.510   5.07000000e+02 
96.474   5.04000000e+02 
96.438   5.61000000e+02 
96.402   5.52000000e+02 
96.366   5.48000000e+02 
96.330   5.75000000e+02 
96.295   5.89000000e+02 
96.259   5.83000000e+02 
96.223   6.45000000e+02 
96.187   6.28000000e+02 
96.151   6.70000000e+02 
96.115   6.60000000e+02 
96.079   6.75000000e+02 
96.043   7.19000000e+02 
96.007   7.82000000e+02 
95.971   7.56000000e+02 
95.935   8.18000000e+02 
95.899   8.06000000e+02 
95.863   8.76000000e+02 
95.827   8.74000000e+02 
95.791   8.95000000e+02 
95.755   9.35000000e+02 
95.720   1.00900000e+03 
95.684   1.01000000e+03 
95.648   1.04600000e+03 
95.612   1.05800000e+03 
95.576   1.12500000e+03 
95.540   1.12600000e+03 
95.504   1.25000000e+03 
95.468   1.25300000e+03 
95.432   1.34400000e+03 
95.396   1.44700000e+03 
95.360   1.45500000e+03 
95.324   1.58500000e+03 
95.288   1.55200000e+03 
95.252   1.76200000e+03 
95.216   1.70800000e+03 
95.180   1.78900000e+03 
95.145   1.90600000e+03 
95.109   1.93400000e+03 
95.073   2.09900000e+03 
95.037   2.06100000e+03 
95.001   2.18300000e+03 
94.965   2.13600000e+03 
94.929   2.28900000e+03 
94.893   2.38100000e+03 
94.857   2.33000000e+03 
94.821   2.41000000e+03 
94.785   2.45100000e+03 
94.749   2.36100000e+03 
94.713   2.42900000e+03 
94.677   2.35600000e+03 
94.641   2.38900000e+03 
94.605   2.25500000e+03 
94.570   2.27100000e+03 
94.534   2.03200000e+03 
94.498   1.98500000e+03 
94.462   1.87000000e+03 
94.426   1.73800000e+03 
94.390   1.54100000e+03 
94.354   1.52300000e+03 
94.318   1.38300000e+03 
94.282   1.21300000e+03 
94.246   1.12000000e+03 
94.210   1.01200000e+03 
94.174   9.85000000e+02 
94.138   8.91000000e+02 
94.102   8.11000000e+02 
94.066   7.62000000e+02 
94.030   6.63000000e+02 
93.995   6.76000000e+02 
93.959   6.16000000e+02 
93.923   6.40000000e+02 
93.887   6.22000000e+02 
93.851   5.27000000e+02 
93.815   5.39000000e+02 
93.779   5.38000000e+02 
93.743   5.54000000e+02 
93.707   4.94000000e+02 
93.671   5.44000000e+02 
93.635   4.97000000e+02 
93.599   5.05000000e+02 
93.563   4.70000000e+02 
93.527   4.74000000e+02 
93.491   4.69000000e+02 
93.455   4.63000000e+02 
93.420   4.60000000e+02 
93.384   4.28000000e+02 
93.348   4.81000000e+02 
93.312   4.45000000e+02 
93.276   4.85000000e+02 
93.240   4.22000000e+02 
93.204   4.58000000e+02 
93.168   4.92000000e+02 
93.132   4.73000000e+02 
93.096   4.65000000e+02 
93.060   4.87000000e+02 
93.024   5.01000000e+02 
92.988   4.72000000e+02 
92.952   4.73000000e+02 
92.916   4.62000000e+02 
92.880   4.89000000e+02 
92.845   5.17000000e+02 
92.809   5.21000000e+02 
92.773   5.25000000e+02 
92.737   5.27000000e+02 
92.701   5.02000000e+02 
92.665   5.85000000e+02 
92.629   5.56000000e+02 
92.593   5.81000000e+02 
92.557   6.26000000e+02 
92.521   6.62000000e+02 
92.485   6.53000000e+02 
92.449   6.75000000e+02 
92.413   6.97000000e+02 
92.377   7.46000000e+02 
92.341   7.26000000e+02 
92.305   8.09000000e+02 
92.270   8.35000000e+02 
92.234   8.67000000e+02 
92.198   8.84000000e+02 
92.162   9.53000000e+02 
92.126   9.55000000e+02 
92.090   9.69000000e+02 
92.054   1.02100000e+03 
92.018   1.07900000e+03 
91.982   1.12000000e+03 
91.946   1.22100000e+03 
91.910   1.30600000e+03 
91.874   1.38700000e+03 
91.838   1.34800000e+03 
91.802   1.42000000e+03 
91.766   1.49700000e+03 
91.730   1.67300000e+03 
91.695   1.66500000e+03 
91.659   1.82000000e+03 
91.623   1.90900000e+03 
91.587   2.03900000e+03 
91.551   2.03600000e+03 
91.515   2.11900000e+03 
91.479   2.24200000e+03 
91.443   2.29700000e+03 
91.407   2.45300000e+03 
91.371   2.49000000e+03 
91.335   2.64700000e+03 
91.299   2.61800000e+03 
91.263   2.75100000e+03 
91.227   2.82200000e+03 
91.191   2.82000000e+03 
91.155   2.87100000e+03 
91.120   3.01600000e+03 
91.084   2.96300000e+03 
91.048   2.89400000e+03 
91.012   2.97800000e+03 
90.976   2.80600000e+03 
90.940   2.83400000e+03 
90.904   2.69900000e+03 
90.868   2.51600000e+03 
90.832   2.34900000e+03 
90.796   2.23200000e+03 
90.760   2.08700000e+03 
90.724   1.92600000e+03 
90.688   1.62200000e+03 
90.652   1.53000000e+03 
90.616   1.31700000e+03 
90.580   1.15500000e+03 
90.545   1.05600000e+03 
90.509   9.13000000e+02 
90.473   9.00000000e+02 
90.437   7.86000000e+02 
90.401   7.28000000e+02 
90.365   6.55000000e+02 
90.329   6.43000000e+02 
90.293   5.36000000e+02 
90.257   5.00000000e+02 
90.221   4.28000000e+02 
90.185   3.71000000e+02 
90.149   4.08000000e+02 
90.113   3.74000000e+02 
90.077   3.72000000e+02 
90.041   3.66000000e+02 
90.005   3.65000000e+02 
89.970   3.28000000e+02 
89.934   3.09000000e+02 
89.898   3.04000000e+02 
89.862   3.14000000e+02 
89.826   2.99000000e+02 
89.790   2.80000000e+02 
89.754   3.04000000e+02 
89.718   2.77000000e+02 
89.682   2.74000000e+02 
89.646   2.72000000e+02 
89.610   2.81000000e+02 
89.574   2.59000000e+02 
89.538   2.46000000e+02 
89.502   2.34000000e+02 
89.466   2.25000000e+02 
89.430   2.31000000e+02 
89.395   2.58000000e+02 
89.359   2.46000000e+02 
89.323   2.24000000e+02 
89.287   2.43000000e+02 
89.251   2.13000000e+02 
89.215   2.21000000e+02 
89.179   2.40000000e+02 
89.143   2.26000000e+02 
89.107   2.14000000e+02 
89.071   2.33000000e+02 
89.035   2.13000000e+02 
88.999   2.08000000e+02 
88.963   2.39000000e+02 
88.927   1.79000000e+02 
88.891   2.02000000e+02 
88.855   1.95000000e+02 
88.820   2.16000000e+02 
88.784   1.83000000e+02 
88.748   2.10000000e+02 
88.712   2.28000000e+02 
88.676   2.10000000e+02 
88.640   1.95000000e+02 
88.604   1.77000000e+02 
88.568   1.99000000e+02 
88.532   2.19000000e+02 
88.496   1.98000000e+02 
88.460   1.79000000e+02 
88.424   1.81000000e+02 
88.388   1.89000000e+02 
88.352   2.02000000e+02 
88.316   2.06000000e+02 
88.280   1.88000000e+02 
88.245   2.13000000e+02 
88.209   2.25000000e+02 
88.173   1.73000000e+02 
88.137   2.14000000e+02 
88.101   2.17000000e+02 
88.065   1.69000000e+02 
88.029   2.00000000e+02 
87.993   1.67000000e+02 
87.957   1.80000000e+02 
87.921   1.82000000e+02 
87.885   1.72000000e+02 
87.849   1.67000000e+02 
87.813   1.73000000e+02 
87.777   1.88000000e+02 
87.741   1.88000000e+02 
87.705   1.85000000e+02 
87.670   1.90000000e+02 
87.634   1.53000000e+02 
87.598   1.77000000e+02 
87.562   1.65000000e+02 
87.526   1.71000000e+02 
87.490   1.64000000e+02 
87.454   1.71000000e+02 
87.418   1.75000000e+02 
87.382   1.98000000e+02 
87.346   1.96000000e+02 
87.310   1.89000000e+02 
87.274   1.72000000e+02 
87.238   1.71000000e+02 
87.202   2.16000000e+02 
87.166   1.90000000e+02 
87.130   1.74000000e+02 
87.095   1.63000000e+02 
87.059   1.77000000e+02 
87.023   1.79000000e+02 

