EXPERIMENT FILE
Version = 2

[ Experiment Parameters ]
Experiment Description= <none> 
Number_of_Regions_in_Experiment= 1 

Original_File_name= C:\alexesca\data\Calibration\23_04_2013_ calibration\0423Au4fAngNeg25@+25.5.xps 
Instrument= HP ESCA West
Date= 04-23-2013
Time=  16:59:27

[ Layer Parameters ]
Layer_Type= XPS

[ Region 1 Parameters ]
Region_Description = Au 4f Dithered 92eV Center 10eV Width
BEcenter(eV) = 92.000000
BEwidth(eV) = 10.000000
BEstep(eV) = 0.035938
Dwell_Time(sec) = 1.000000
N_o_scans = 1  
N_o_Channels = 278  
Scan_mode = 0  (DITHERED)

[ L= 1 R= 1 ]
BEcenter= 92.000  
BEwidth= -9.955  
Excitation= 1486.600
Time_p_channel= 256.000 
Size= 278
96.977   2.95000000e+02 
96.941   2.68000000e+02 
96.905   2.47000000e+02 
96.870   2.66000000e+02 
96.834   2.41000000e+02 
96.798   2.68000000e+02 
96.762   2.99000000e+02 
96.726   2.30000000e+02 
96.690   2.70000000e+02 
96.654   2.64000000e+02 
96.618   3.33000000e+02 
96.582   2.92000000e+02 
96.546   3.21000000e+02 
96.510   3.02000000e+02 
96.474   2.94000000e+02 
96.438   2.83000000e+02 
96.402   2.99000000e+02 
96.366   3.11000000e+02 
96.330   3.28000000e+02 
96.295   2.97000000e+02 
96.259   2.86000000e+02 
96.223   3.35000000e+02 
96.187   3.20000000e+02 
96.151   3.52000000e+02 
96.115   3.90000000e+02 
96.079   3.27000000e+02 
96.043   3.91000000e+02 
96.007   3.61000000e+02 
95.971   4.26000000e+02 
95.935   4.15000000e+02 
95.899   3.86000000e+02 
95.863   4.46000000e+02 
95.827   4.07000000e+02 
95.791   4.77000000e+02 
95.755   4.90000000e+02 
95.720   4.93000000e+02 
95.684   4.85000000e+02 
95.648   5.61000000e+02 
95.612   6.09000000e+02 
95.576   6.07000000e+02 
95.540   6.09000000e+02 
95.504   7.03000000e+02 
95.468   6.63000000e+02 
95.432   6.85000000e+02 
95.396   7.06000000e+02 
95.360   7.60000000e+02 
95.324   8.22000000e+02 
95.288   7.97000000e+02 
95.252   9.04000000e+02 
95.216   9.57000000e+02 
95.180   9.71000000e+02 
95.145   1.05700000e+03 
95.109   1.08500000e+03 
95.073   1.18100000e+03 
95.037   1.10000000e+03 
95.001   1.16700000e+03 
94.965   1.25900000e+03 
94.929   1.26600000e+03 
94.893   1.31000000e+03 
94.857   1.29300000e+03 
94.821   1.36600000e+03 
94.785   1.38200000e+03 
94.749   1.35200000e+03 
94.713   1.36900000e+03 
94.677   1.34600000e+03 
94.641   1.36400000e+03 
94.605   1.26500000e+03 
94.570   1.24700000e+03 
94.534   1.24100000e+03 
94.498   1.09400000e+03 
94.462   1.01000000e+03 
94.426   9.87000000e+02 
94.390   9.31000000e+02 
94.354   8.11000000e+02 
94.318   7.45000000e+02 
94.282   6.97000000e+02 
94.246   6.41000000e+02 
94.210   6.11000000e+02 
94.174   5.48000000e+02 
94.138   4.80000000e+02 
94.102   4.79000000e+02 
94.066   4.23000000e+02 
94.030   4.42000000e+02 
93.995   3.92000000e+02 
93.959   3.70000000e+02 
93.923   3.44000000e+02 
93.887   3.28000000e+02 
93.851   2.95000000e+02 
93.815   3.08000000e+02 
93.779   3.11000000e+02 
93.743   3.16000000e+02 
93.707   3.07000000e+02 
93.671   2.99000000e+02 
93.635   2.81000000e+02 
93.599   2.91000000e+02 
93.563   2.54000000e+02 
93.527   2.71000000e+02 
93.491   2.66000000e+02 
93.455   2.79000000e+02 
93.420   2.81000000e+02 
93.384   2.79000000e+02 
93.348   2.50000000e+02 
93.312   2.66000000e+02 
93.276   2.55000000e+02 
93.240   2.70000000e+02 
93.204   2.37000000e+02 
93.168   2.88000000e+02 
93.132   2.67000000e+02 
93.096   2.49000000e+02 
93.060   2.22000000e+02 
93.024   2.34000000e+02 
92.988   2.75000000e+02 
92.952   2.87000000e+02 
92.916   2.70000000e+02 
92.880   2.58000000e+02 
92.845   2.59000000e+02 
92.809   2.47000000e+02 
92.773   2.82000000e+02 
92.737   2.98000000e+02 
92.701   3.07000000e+02 
92.665   3.10000000e+02 
92.629   2.96000000e+02 
92.593   3.02000000e+02 
92.557   3.03000000e+02 
92.521   3.43000000e+02 
92.485   3.40000000e+02 
92.449   3.44000000e+02 
92.413   3.45000000e+02 
92.377   3.47000000e+02 
92.341   3.85000000e+02 
92.305   3.97000000e+02 
92.270   3.91000000e+02 
92.234   4.45000000e+02 
92.198   4.54000000e+02 
92.162   4.43000000e+02 
92.126   4.88000000e+02 
92.090   4.75000000e+02 
92.054   5.39000000e+02 
92.018   5.68000000e+02 
91.982   5.35000000e+02 
91.946   6.11000000e+02 
91.910   6.22000000e+02 
91.874   6.08000000e+02 
91.838   6.73000000e+02 
91.802   6.76000000e+02 
91.766   8.11000000e+02 
91.730   8.50000000e+02 
91.695   8.54000000e+02 
91.659   9.21000000e+02 
91.623   1.01200000e+03 
91.587   1.04400000e+03 
91.551   1.11200000e+03 
91.515   1.15700000e+03 
91.479   1.20600000e+03 
91.443   1.27800000e+03 
91.407   1.33300000e+03 
91.371   1.40200000e+03 
91.335   1.42700000e+03 
91.299   1.50700000e+03 
91.263   1.53400000e+03 
91.227   1.51500000e+03 
91.191   1.52000000e+03 
91.155   1.65400000e+03 
91.120   1.63900000e+03 
91.084   1.70600000e+03 
91.048   1.66500000e+03 
91.012   1.60500000e+03 
90.976   1.62100000e+03 
90.940   1.55200000e+03 
90.904   1.55600000e+03 
90.868   1.40700000e+03 
90.832   1.31900000e+03 
90.796   1.26600000e+03 
90.760   1.12200000e+03 
90.724   9.90000000e+02 
90.688   9.54000000e+02 
90.652   8.61000000e+02 
90.616   7.72000000e+02 
90.580   6.87000000e+02 
90.545   5.99000000e+02 
90.509   6.02000000e+02 
90.473   5.03000000e+02 
90.437   4.50000000e+02 
90.401   3.86000000e+02 
90.365   3.85000000e+02 
90.329   3.30000000e+02 
90.293   3.25000000e+02 
90.257   2.60000000e+02 
90.221   2.96000000e+02 
90.185   2.43000000e+02 
90.149   2.24000000e+02 
90.113   2.29000000e+02 
90.077   2.36000000e+02 
90.041   2.08000000e+02 
90.005   2.00000000e+02 
89.970   1.84000000e+02 
89.934   1.89000000e+02 
89.898   1.83000000e+02 
89.862   1.74000000e+02 
89.826   1.91000000e+02 
89.790   1.91000000e+02 
89.754   1.49000000e+02 
89.718   1.71000000e+02 
89.682   1.57000000e+02 
89.646   1.75000000e+02 
89.610   1.64000000e+02 
89.574   1.53000000e+02 
89.538   1.67000000e+02 
89.502   1.29000000e+02 
89.466   1.44000000e+02 
89.430   1.48000000e+02 
89.395   1.44000000e+02 
89.359   1.27000000e+02 
89.323   1.35000000e+02 
89.287   1.58000000e+02 
89.251   1.42000000e+02 
89.215   1.42000000e+02 
89.179   1.52000000e+02 
89.143   1.11000000e+02 
89.107   1.41000000e+02 
89.071   1.28000000e+02 
89.035   1.14000000e+02 
88.999   1.53000000e+02 
88.963   1.44000000e+02 
88.927   1.22000000e+02 
88.891   1.44000000e+02 
88.855   1.29000000e+02 
88.820   1.29000000e+02 
88.784   1.30000000e+02 
88.748   1.40000000e+02 
88.712   1.26000000e+02 
88.676   1.29000000e+02 
88.640   1.25000000e+02 
88.604   1.12000000e+02 
88.568   1.41000000e+02 
88.532   1.21000000e+02 
88.496   1.13000000e+02 
88.460   1.34000000e+02 
88.424   1.24000000e+02 
88.388   1.28000000e+02 
88.352   1.30000000e+02 
88.316   1.26000000e+02 
88.280   1.19000000e+02 
88.245   1.19000000e+02 
88.209   1.25000000e+02 
88.173   1.00000000e+02 
88.137   1.13000000e+02 
88.101   1.37000000e+02 
88.065   1.25000000e+02 
88.029   1.02000000e+02 
87.993   1.15000000e+02 
87.957   1.37000000e+02 
87.921   1.17000000e+02 
87.885   1.10000000e+02 
87.849   1.07000000e+02 
87.813   9.80000000e+01 
87.777   1.05000000e+02 
87.741   1.15000000e+02 
87.705   1.04000000e+02 
87.670   9.80000000e+01 
87.634   1.26000000e+02 
87.598   1.37000000e+02 
87.562   1.06000000e+02 
87.526   1.04000000e+02 
87.490   1.05000000e+02 
87.454   9.80000000e+01 
87.418   9.90000000e+01 
87.382   1.06000000e+02 
87.346   1.07000000e+02 
87.310   1.24000000e+02 
87.274   9.70000000e+01 
87.238   1.21000000e+02 
87.202   1.15000000e+02 
87.166   9.60000000e+01 
87.130   1.12000000e+02 
87.095   1.05000000e+02 
87.059   1.03000000e+02 
87.023   1.09000000e+02 

