EXPERIMENT FILE
Version = 2

[ Experiment Parameters ]
Experiment Description= <none> 
Number_of_Regions_in_Experiment= 1 

Original_File_name= C:\alexesca\data\Calibration\23_04_2013_ calibration\0424ang30.xps 
Instrument= HP ESCA West
Date= 04-25-2013
Time=  16:50:40

[ Layer Parameters ]
Layer_Type= XPS

[ Region 1 Parameters ]
Region_Description = Au 4f Dithered 92eV Center 10eV Width
BEcenter(eV) = 92.000000
BEwidth(eV) = 10.000000
BEstep(eV) = 0.035937
Dwell_Time(sec) = 1.000000
N_o_scans = 1  
N_o_Channels = 278  
Scan_mode = 0  (DITHERED)

[ L= 1 R= 1 ]
BEcenter= 92.000  
BEwidth= -9.955  
Excitation= 1486.600
Time_p_channel= 256.000 
Size= 278
96.977   2.48000000e+02 
96.941   2.82000000e+02 
96.905   2.75000000e+02 
96.870   2.79000000e+02 
96.834   2.66000000e+02 
96.798   2.80000000e+02 
96.762   2.53000000e+02 
96.726   3.10000000e+02 
96.690   2.99000000e+02 
96.654   2.69000000e+02 
96.618   2.72000000e+02 
96.582   2.69000000e+02 
96.546   2.96000000e+02 
96.510   3.26000000e+02 
96.474   3.11000000e+02 
96.438   3.45000000e+02 
96.402   3.14000000e+02 
96.366   3.35000000e+02 
96.330   4.21000000e+02 
96.295   3.99000000e+02 
96.259   3.37000000e+02 
96.223   3.33000000e+02 
96.187   3.02000000e+02 
96.151   3.48000000e+02 
96.115   3.36000000e+02 
96.079   3.59000000e+02 
96.043   3.60000000e+02 
96.007   3.95000000e+02 
95.971   3.89000000e+02 
95.935   4.12000000e+02 
95.899   4.16000000e+02 
95.863   4.40000000e+02 
95.827   4.59000000e+02 
95.791   4.78000000e+02 
95.755   4.63000000e+02 
95.720   5.40000000e+02 
95.684   5.08000000e+02 
95.648   5.77000000e+02 
95.612   6.09000000e+02 
95.576   6.13000000e+02 
95.540   6.44000000e+02 
95.504   7.03000000e+02 
95.468   7.46000000e+02 
95.432   7.75000000e+02 
95.396   7.66000000e+02 
95.360   8.25000000e+02 
95.324   8.69000000e+02 
95.288   9.15000000e+02 
95.252   9.49000000e+02 
95.216   9.53000000e+02 
95.180   1.05700000e+03 
95.145   9.80000000e+02 
95.109   1.07300000e+03 
95.073   1.12900000e+03 
95.037   1.19700000e+03 
95.001   1.21800000e+03 
94.965   1.26700000e+03 
94.929   1.31900000e+03 
94.893   1.36600000e+03 
94.857   1.34700000e+03 
94.821   1.31700000e+03 
94.785   1.29300000e+03 
94.749   1.41600000e+03 
94.713   1.37500000e+03 
94.677   1.33200000e+03 
94.641   1.29900000e+03 
94.605   1.26400000e+03 
94.570   1.22100000e+03 
94.534   1.20700000e+03 
94.498   1.04300000e+03 
94.462   1.00200000e+03 
94.426   8.91000000e+02 
94.390   8.19000000e+02 
94.354   8.35000000e+02 
94.318   7.14000000e+02 
94.282   6.77000000e+02 
94.246   6.41000000e+02 
94.210   5.85000000e+02 
94.174   5.29000000e+02 
94.138   4.58000000e+02 
94.102   4.59000000e+02 
94.066   4.35000000e+02 
94.030   4.11000000e+02 
93.995   3.83000000e+02 
93.959   3.20000000e+02 
93.923   3.34000000e+02 
93.887   3.33000000e+02 
93.851   3.25000000e+02 
93.815   3.36000000e+02 
93.779   3.06000000e+02 
93.743   3.06000000e+02 
93.707   2.76000000e+02 
93.671   2.97000000e+02 
93.635   2.83000000e+02 
93.599   2.70000000e+02 
93.563   2.86000000e+02 
93.527   2.76000000e+02 
93.491   2.97000000e+02 
93.455   2.79000000e+02 
93.420   2.56000000e+02 
93.384   2.37000000e+02 
93.348   2.43000000e+02 
93.312   2.50000000e+02 
93.276   2.33000000e+02 
93.240   2.45000000e+02 
93.204   2.52000000e+02 
93.168   2.69000000e+02 
93.132   2.45000000e+02 
93.096   2.52000000e+02 
93.060   2.79000000e+02 
93.024   2.91000000e+02 
92.988   2.78000000e+02 
92.952   2.48000000e+02 
92.916   2.87000000e+02 
92.880   2.73000000e+02 
92.845   2.43000000e+02 
92.809   2.79000000e+02 
92.773   2.96000000e+02 
92.737   2.62000000e+02 
92.701   2.67000000e+02 
92.665   2.95000000e+02 
92.629   3.11000000e+02 
92.593   3.31000000e+02 
92.557   3.30000000e+02 
92.521   3.49000000e+02 
92.485   3.24000000e+02 
92.449   3.43000000e+02 
92.413   3.74000000e+02 
92.377   3.72000000e+02 
92.341   4.13000000e+02 
92.305   3.76000000e+02 
92.270   4.20000000e+02 
92.234   4.56000000e+02 
92.198   4.58000000e+02 
92.162   4.67000000e+02 
92.126   5.17000000e+02 
92.090   5.63000000e+02 
92.054   5.79000000e+02 
92.018   5.62000000e+02 
91.982   5.90000000e+02 
91.946   7.17000000e+02 
91.910   6.70000000e+02 
91.874   6.95000000e+02 
91.838   7.66000000e+02 
91.802   7.76000000e+02 
91.766   8.40000000e+02 
91.730   8.81000000e+02 
91.695   8.95000000e+02 
91.659   9.74000000e+02 
91.623   1.06100000e+03 
91.587   1.07800000e+03 
91.551   1.21400000e+03 
91.515   1.20400000e+03 
91.479   1.27700000e+03 
91.443   1.30200000e+03 
91.407   1.32400000e+03 
91.371   1.39100000e+03 
91.335   1.49500000e+03 
91.299   1.50300000e+03 
91.263   1.53600000e+03 
91.227   1.58400000e+03 
91.191   1.60300000e+03 
91.155   1.57100000e+03 
91.120   1.67500000e+03 
91.084   1.74800000e+03 
91.048   1.62400000e+03 
91.012   1.63400000e+03 
90.976   1.59900000e+03 
90.940   1.51300000e+03 
90.904   1.45600000e+03 
90.868   1.33500000e+03 
90.832   1.26100000e+03 
90.796   1.18900000e+03 
90.760   1.09800000e+03 
90.724   9.91000000e+02 
90.688   9.04000000e+02 
90.652   8.02000000e+02 
90.616   7.27000000e+02 
90.580   6.25000000e+02 
90.545   5.74000000e+02 
90.509   4.88000000e+02 
90.473   4.82000000e+02 
90.437   3.91000000e+02 
90.401   3.80000000e+02 
90.365   3.57000000e+02 
90.329   3.18000000e+02 
90.293   3.04000000e+02 
90.257   2.84000000e+02 
90.221   2.69000000e+02 
90.185   2.42000000e+02 
90.149   2.55000000e+02 
90.113   2.42000000e+02 
90.077   1.96000000e+02 
90.041   2.19000000e+02 
90.005   2.26000000e+02 
89.970   1.88000000e+02 
89.934   2.15000000e+02 
89.898   1.56000000e+02 
89.862   1.69000000e+02 
89.826   1.71000000e+02 
89.790   1.69000000e+02 
89.754   1.65000000e+02 
89.718   1.60000000e+02 
89.682   1.38000000e+02 
89.646   1.78000000e+02 
89.610   1.68000000e+02 
89.574   1.63000000e+02 
89.538   1.34000000e+02 
89.502   1.61000000e+02 
89.466   1.66000000e+02 
89.430   1.50000000e+02 
89.395   1.48000000e+02 
89.359   1.32000000e+02 
89.323   1.63000000e+02 
89.287   1.54000000e+02 
89.251   1.35000000e+02 
89.215   1.27000000e+02 
89.179   1.22000000e+02 
89.143   1.30000000e+02 
89.107   1.30000000e+02 
89.071   1.45000000e+02 
89.035   1.36000000e+02 
88.999   1.41000000e+02 
88.963   1.38000000e+02 
88.927   1.35000000e+02 
88.891   1.26000000e+02 
88.855   1.43000000e+02 
88.820   1.11000000e+02 
88.784   1.05000000e+02 
88.748   1.21000000e+02 
88.712   1.18000000e+02 
88.676   1.16000000e+02 
88.640   1.33000000e+02 
88.604   1.42000000e+02 
88.568   1.23000000e+02 
88.532   1.40000000e+02 
88.496   1.30000000e+02 
88.460   1.20000000e+02 
88.424   1.14000000e+02 
88.388   1.27000000e+02 
88.352   1.17000000e+02 
88.316   1.15000000e+02 
88.280   1.19000000e+02 
88.245   1.24000000e+02 
88.209   1.12000000e+02 
88.173   1.23000000e+02 
88.137   1.30000000e+02 
88.101   1.15000000e+02 
88.065   1.29000000e+02 
88.029   1.26000000e+02 
87.993   1.18000000e+02 
87.957   1.18000000e+02 
87.921   1.17000000e+02 
87.885   1.09000000e+02 
87.849   1.16000000e+02 
87.813   1.07000000e+02 
87.777   1.06000000e+02 
87.741   1.40000000e+02 
87.705   1.24000000e+02 
87.670   1.18000000e+02 
87.634   1.41000000e+02 
87.598   1.27000000e+02 
87.562   1.16000000e+02 
87.526   1.13000000e+02 
87.490   1.18000000e+02 
87.454   1.27000000e+02 
87.418   1.26000000e+02 
87.382   9.50000000e+01 
87.346   1.27000000e+02 
87.310   1.28000000e+02 
87.274   1.12000000e+02 
87.238   1.24000000e+02 
87.202   1.45000000e+02 
87.166   1.24000000e+02 
87.130   1.55000000e+02 
87.095   1.25000000e+02 
87.059   1.07000000e+02 
87.023   1.06000000e+02 

