EXPERIMENT FILE
Version = 2

[ Experiment Parameters ]
Experiment Description= <none> 
Number_of_Regions_in_Experiment= 1 

Original_File_name= C:\alexesca\data\Calibration\23_04_2013_ calibration\0424ang20.xps 
Instrument= HP ESCA West
Date= 04-25-2013
Time=  17:29:38

[ Layer Parameters ]
Layer_Type= XPS

[ Region 1 Parameters ]
Region_Description = Au 4f Dithered 92eV Center 10eV Width
BEcenter(eV) = 92.000000
BEwidth(eV) = 10.000000
BEstep(eV) = 0.035937
Dwell_Time(sec) = 1.000000
N_o_scans = 1  
N_o_Channels = 278  
Scan_mode = 0  (DITHERED)

[ L= 1 R= 1 ]
BEcenter= 92.000  
BEwidth= -9.955  
Excitation= 1486.600
Time_p_channel= 256.000 
Size= 278
96.977   4.77000000e+02 
96.941   4.60000000e+02 
96.905   5.06000000e+02 
96.870   4.98000000e+02 
96.834   4.98000000e+02 
96.798   5.00000000e+02 
96.762   4.89000000e+02 
96.726   5.06000000e+02 
96.690   5.32000000e+02 
96.654   5.29000000e+02 
96.618   5.58000000e+02 
96.582   5.41000000e+02 
96.546   5.46000000e+02 
96.510   5.73000000e+02 
96.474   5.12000000e+02 
96.438   5.69000000e+02 
96.402   5.95000000e+02 
96.366   6.03000000e+02 
96.330   6.15000000e+02 
96.295   5.56000000e+02 
96.259   5.94000000e+02 
96.223   6.77000000e+02 
96.187   6.48000000e+02 
96.151   7.21000000e+02 
96.115   7.00000000e+02 
96.079   7.24000000e+02 
96.043   7.14000000e+02 
96.007   7.66000000e+02 
95.971   7.85000000e+02 
95.935   8.42000000e+02 
95.899   8.23000000e+02 
95.863   8.75000000e+02 
95.827   9.19000000e+02 
95.791   9.44000000e+02 
95.755   9.39000000e+02 
95.720   1.03700000e+03 
95.684   1.06400000e+03 
95.648   1.09500000e+03 
95.612   1.13700000e+03 
95.576   1.22100000e+03 
95.540   1.24700000e+03 
95.504   1.24100000e+03 
95.468   1.33200000e+03 
95.432   1.45100000e+03 
95.396   1.41700000e+03 
95.360   1.49400000e+03 
95.324   1.54000000e+03 
95.288   1.66100000e+03 
95.252   1.72500000e+03 
95.216   1.81600000e+03 
95.180   1.86600000e+03 
95.145   2.00700000e+03 
95.109   2.03100000e+03 
95.073   2.17900000e+03 
95.037   2.16100000e+03 
95.001   2.20300000e+03 
94.965   2.26600000e+03 
94.929   2.34800000e+03 
94.893   2.47600000e+03 
94.857   2.45500000e+03 
94.821   2.49300000e+03 
94.785   2.59200000e+03 
94.749   2.52800000e+03 
94.713   2.50200000e+03 
94.677   2.51300000e+03 
94.641   2.43600000e+03 
94.605   2.34800000e+03 
94.570   2.29400000e+03 
94.534   2.12800000e+03 
94.498   2.06300000e+03 
94.462   1.91300000e+03 
94.426   1.75100000e+03 
94.390   1.65100000e+03 
94.354   1.50800000e+03 
94.318   1.43000000e+03 
94.282   1.26700000e+03 
94.246   1.19400000e+03 
94.210   1.07600000e+03 
94.174   1.02400000e+03 
94.138   9.45000000e+02 
94.102   8.36000000e+02 
94.066   8.01000000e+02 
94.030   7.60000000e+02 
93.995   7.17000000e+02 
93.959   6.94000000e+02 
93.923   6.33000000e+02 
93.887   5.88000000e+02 
93.851   6.30000000e+02 
93.815   5.50000000e+02 
93.779   5.69000000e+02 
93.743   5.31000000e+02 
93.707   5.32000000e+02 
93.671   5.26000000e+02 
93.635   5.23000000e+02 
93.599   4.90000000e+02 
93.563   4.82000000e+02 
93.527   4.92000000e+02 
93.491   5.03000000e+02 
93.455   4.59000000e+02 
93.420   4.59000000e+02 
93.384   5.09000000e+02 
93.348   5.15000000e+02 
93.312   5.34000000e+02 
93.276   4.25000000e+02 
93.240   4.66000000e+02 
93.204   4.66000000e+02 
93.168   5.07000000e+02 
93.132   4.51000000e+02 
93.096   5.01000000e+02 
93.060   4.73000000e+02 
93.024   4.86000000e+02 
92.988   4.67000000e+02 
92.952   5.03000000e+02 
92.916   5.02000000e+02 
92.880   4.90000000e+02 
92.845   5.29000000e+02 
92.809   5.01000000e+02 
92.773   5.19000000e+02 
92.737   5.37000000e+02 
92.701   5.72000000e+02 
92.665   5.47000000e+02 
92.629   6.03000000e+02 
92.593   6.13000000e+02 
92.557   6.34000000e+02 
92.521   6.28000000e+02 
92.485   6.36000000e+02 
92.449   6.76000000e+02 
92.413   6.95000000e+02 
92.377   7.84000000e+02 
92.341   7.60000000e+02 
92.305   8.12000000e+02 
92.270   8.73000000e+02 
92.234   8.52000000e+02 
92.198   8.98000000e+02 
92.162   9.45000000e+02 
92.126   9.16000000e+02 
92.090   1.02800000e+03 
92.054   1.05200000e+03 
92.018   1.14400000e+03 
91.982   1.18500000e+03 
91.946   1.22200000e+03 
91.910   1.29200000e+03 
91.874   1.41400000e+03 
91.838   1.44000000e+03 
91.802   1.53400000e+03 
91.766   1.52700000e+03 
91.730   1.69800000e+03 
91.695   1.75600000e+03 
91.659   1.71600000e+03 
91.623   1.98900000e+03 
91.587   2.01200000e+03 
91.551   2.13500000e+03 
91.515   2.19500000e+03 
91.479   2.34200000e+03 
91.443   2.35400000e+03 
91.407   2.40600000e+03 
91.371   2.58400000e+03 
91.335   2.58000000e+03 
91.299   2.68800000e+03 
91.263   2.88000000e+03 
91.227   2.82600000e+03 
91.191   2.99100000e+03 
91.155   2.99300000e+03 
91.120   3.01500000e+03 
91.084   3.08700000e+03 
91.048   3.04400000e+03 
91.012   3.03000000e+03 
90.976   2.85900000e+03 
90.940   2.84500000e+03 
90.904   2.72600000e+03 
90.868   2.49700000e+03 
90.832   2.41600000e+03 
90.796   2.28300000e+03 
90.760   2.14500000e+03 
90.724   1.81500000e+03 
90.688   1.71200000e+03 
90.652   1.50700000e+03 
90.616   1.40000000e+03 
90.580   1.26600000e+03 
90.545   1.14600000e+03 
90.509   1.04100000e+03 
90.473   9.14000000e+02 
90.437   7.78000000e+02 
90.401   7.45000000e+02 
90.365   6.83000000e+02 
90.329   6.46000000e+02 
90.293   5.57000000e+02 
90.257   5.06000000e+02 
90.221   4.88000000e+02 
90.185   4.72000000e+02 
90.149   4.29000000e+02 
90.113   4.44000000e+02 
90.077   3.88000000e+02 
90.041   3.86000000e+02 
90.005   3.65000000e+02 
89.970   3.47000000e+02 
89.934   3.64000000e+02 
89.898   3.09000000e+02 
89.862   3.30000000e+02 
89.826   3.21000000e+02 
89.790   3.07000000e+02 
89.754   2.83000000e+02 
89.718   2.77000000e+02 
89.682   2.94000000e+02 
89.646   2.98000000e+02 
89.610   2.50000000e+02 
89.574   2.84000000e+02 
89.538   2.22000000e+02 
89.502   2.57000000e+02 
89.466   2.77000000e+02 
89.430   2.49000000e+02 
89.395   2.45000000e+02 
89.359   2.51000000e+02 
89.323   2.15000000e+02 
89.287   2.36000000e+02 
89.251   2.30000000e+02 
89.215   2.30000000e+02 
89.179   2.19000000e+02 
89.143   2.42000000e+02 
89.107   2.20000000e+02 
89.071   2.40000000e+02 
89.035   2.07000000e+02 
88.999   2.14000000e+02 
88.963   2.07000000e+02 
88.927   2.42000000e+02 
88.891   2.13000000e+02 
88.855   2.46000000e+02 
88.820   2.05000000e+02 
88.784   1.97000000e+02 
88.748   1.96000000e+02 
88.712   2.04000000e+02 
88.676   2.09000000e+02 
88.640   2.14000000e+02 
88.604   2.08000000e+02 
88.568   2.17000000e+02 
88.532   2.06000000e+02 
88.496   1.92000000e+02 
88.460   1.80000000e+02 
88.424   1.93000000e+02 
88.388   1.92000000e+02 
88.352   1.73000000e+02 
88.316   1.97000000e+02 
88.280   1.89000000e+02 
88.245   1.92000000e+02 
88.209   1.68000000e+02 
88.173   2.00000000e+02 
88.137   1.88000000e+02 
88.101   1.92000000e+02 
88.065   2.03000000e+02 
88.029   1.67000000e+02 
87.993   1.82000000e+02 
87.957   1.73000000e+02 
87.921   1.82000000e+02 
87.885   1.77000000e+02 
87.849   1.91000000e+02 
87.813   1.88000000e+02 
87.777   1.74000000e+02 
87.741   1.90000000e+02 
87.705   1.95000000e+02 
87.670   1.94000000e+02 
87.634   2.04000000e+02 
87.598   1.83000000e+02 
87.562   1.74000000e+02 
87.526   1.76000000e+02 
87.490   1.78000000e+02 
87.454   1.90000000e+02 
87.418   1.83000000e+02 
87.382   1.78000000e+02 
87.346   1.73000000e+02 
87.310   1.98000000e+02 
87.274   1.90000000e+02 
87.238   1.92000000e+02 
87.202   1.95000000e+02 
87.166   1.81000000e+02 
87.130   1.75000000e+02 
87.095   1.68000000e+02 
87.059   1.86000000e+02 
87.023   1.88000000e+02 

