EXPERIMENT FILE
Version = 2

[ Experiment Parameters ]
Experiment Description= <none> 
Number_of_Regions_in_Experiment= 1 

Original_File_name= C:\alexesca\data\Calibration\23_04_2013_ calibration\0424pos5.xps 
Instrument= HP ESCA West
Date= 04-25-2013
Time=  18:16:50

[ Layer Parameters ]
Layer_Type= XPS

[ Region 1 Parameters ]
Region_Description = Au 4f Dithered 92eV Center 10eV Width
BEcenter(eV) = 92.000000
BEwidth(eV) = 10.000000
BEstep(eV) = 0.035937
Dwell_Time(sec) = 1.000000
N_o_scans = 1  
N_o_Channels = 278  
Scan_mode = 0  (DITHERED)

[ L= 1 R= 1 ]
BEcenter= 92.000  
BEwidth= -9.955  
Excitation= 1486.600
Time_p_channel= 256.000 
Size= 278
96.977   1.26600000e+03 
96.941   1.28500000e+03 
96.905   1.28600000e+03 
96.870   1.29900000e+03 
96.834   1.31900000e+03 
96.798   1.41700000e+03 
96.762   1.40000000e+03 
96.726   1.34000000e+03 
96.690   1.42000000e+03 
96.654   1.39600000e+03 
96.618   1.41400000e+03 
96.582   1.53500000e+03 
96.546   1.56200000e+03 
96.510   1.53300000e+03 
96.474   1.59000000e+03 
96.438   1.58500000e+03 
96.402   1.74700000e+03 
96.366   1.73100000e+03 
96.330   1.73700000e+03 
96.295   1.75500000e+03 
96.259   1.85400000e+03 
96.223   1.89300000e+03 
96.187   1.97600000e+03 
96.151   1.96100000e+03 
96.115   2.03500000e+03 
96.079   2.05600000e+03 
96.043   2.21800000e+03 
96.007   2.26500000e+03 
95.971   2.32600000e+03 
95.935   2.44700000e+03 
95.899   2.50500000e+03 
95.863   2.44100000e+03 
95.827   2.59200000e+03 
95.791   2.68600000e+03 
95.755   2.79500000e+03 
95.720   2.82100000e+03 
95.684   2.96700000e+03 
95.648   3.05400000e+03 
95.612   3.09600000e+03 
95.576   3.22900000e+03 
95.540   3.33500000e+03 
95.504   3.61100000e+03 
95.468   3.60600000e+03 
95.432   3.70400000e+03 
95.396   3.85500000e+03 
95.360   3.85500000e+03 
95.324   3.94000000e+03 
95.288   4.08900000e+03 
95.252   4.16000000e+03 
95.216   4.38800000e+03 
95.180   4.53100000e+03 
95.145   4.66500000e+03 
95.109   4.77700000e+03 
95.073   4.93000000e+03 
95.037   4.89000000e+03 
95.001   4.95800000e+03 
94.965   5.21000000e+03 
94.929   5.29500000e+03 
94.893   5.25100000e+03 
94.857   5.36000000e+03 
94.821   5.39800000e+03 
94.785   5.45600000e+03 
94.749   5.49100000e+03 
94.713   5.52800000e+03 
94.677   5.41300000e+03 
94.641   5.46200000e+03 
94.605   5.44600000e+03 
94.570   5.39500000e+03 
94.534   5.26500000e+03 
94.498   5.10700000e+03 
94.462   4.97300000e+03 
94.426   4.87900000e+03 
94.390   4.55500000e+03 
94.354   4.45700000e+03 
94.318   4.24300000e+03 
94.282   4.02400000e+03 
94.246   3.68700000e+03 
94.210   3.56300000e+03 
94.174   3.15400000e+03 
94.138   2.91600000e+03 
94.102   2.78700000e+03 
94.066   2.44600000e+03 
94.030   2.42500000e+03 
93.995   2.20500000e+03 
93.959   2.02000000e+03 
93.923   1.90400000e+03 
93.887   1.74000000e+03 
93.851   1.62300000e+03 
93.815   1.60400000e+03 
93.779   1.55400000e+03 
93.743   1.49500000e+03 
93.707   1.44500000e+03 
93.671   1.37100000e+03 
93.635   1.44000000e+03 
93.599   1.35300000e+03 
93.563   1.37200000e+03 
93.527   1.25300000e+03 
93.491   1.33500000e+03 
93.455   1.33600000e+03 
93.420   1.27500000e+03 
93.384   1.35900000e+03 
93.348   1.25900000e+03 
93.312   1.31400000e+03 
93.276   1.27200000e+03 
93.240   1.37200000e+03 
93.204   1.35800000e+03 
93.168   1.39000000e+03 
93.132   1.39600000e+03 
93.096   1.40600000e+03 
93.060   1.31200000e+03 
93.024   1.37300000e+03 
92.988   1.45300000e+03 
92.952   1.45600000e+03 
92.916   1.48500000e+03 
92.880   1.49000000e+03 
92.845   1.59400000e+03 
92.809   1.59700000e+03 
92.773   1.71500000e+03 
92.737   1.69700000e+03 
92.701   1.77900000e+03 
92.665   1.85300000e+03 
92.629   1.88700000e+03 
92.593   1.95200000e+03 
92.557   1.99400000e+03 
92.521   2.03900000e+03 
92.485   2.14200000e+03 
92.449   2.16200000e+03 
92.413   2.24400000e+03 
92.377   2.26200000e+03 
92.341   2.52900000e+03 
92.305   2.52800000e+03 
92.270   2.64800000e+03 
92.234   2.67300000e+03 
92.198   2.81100000e+03 
92.162   2.96000000e+03 
92.126   3.03000000e+03 
92.090   3.04400000e+03 
92.054   3.19900000e+03 
92.018   3.49700000e+03 
91.982   3.39900000e+03 
91.946   3.67200000e+03 
91.910   3.62300000e+03 
91.874   3.79400000e+03 
91.838   3.99300000e+03 
91.802   4.19400000e+03 
91.766   4.30300000e+03 
91.730   4.38200000e+03 
91.695   4.48600000e+03 
91.659   4.65700000e+03 
91.623   4.77900000e+03 
91.587   5.08400000e+03 
91.551   5.07800000e+03 
91.515   5.24800000e+03 
91.479   5.41900000e+03 
91.443   5.63800000e+03 
91.407   5.65600000e+03 
91.371   5.85500000e+03 
91.335   5.87500000e+03 
91.299   6.08400000e+03 
91.263   6.27900000e+03 
91.227   6.53400000e+03 
91.191   6.53900000e+03 
91.155   6.44000000e+03 
91.120   6.50500000e+03 
91.084   6.60200000e+03 
91.048   6.63100000e+03 
91.012   6.60100000e+03 
90.976   6.57400000e+03 
90.940   6.43900000e+03 
90.904   6.55000000e+03 
90.868   6.38100000e+03 
90.832   6.13100000e+03 
90.796   5.89900000e+03 
90.760   5.81700000e+03 
90.724   5.46600000e+03 
90.688   5.16800000e+03 
90.652   4.98300000e+03 
90.616   4.49800000e+03 
90.580   4.04000000e+03 
90.545   3.82900000e+03 
90.509   3.58800000e+03 
90.473   3.21900000e+03 
90.437   2.95800000e+03 
90.401   2.74300000e+03 
90.365   2.33100000e+03 
90.329   2.10600000e+03 
90.293   1.88000000e+03 
90.257   1.77400000e+03 
90.221   1.68800000e+03 
90.185   1.54200000e+03 
90.149   1.32300000e+03 
90.113   1.23700000e+03 
90.077   1.14800000e+03 
90.041   1.07300000e+03 
90.005   1.02000000e+03 
89.970   9.74000000e+02 
89.934   9.06000000e+02 
89.898   8.39000000e+02 
89.862   8.61000000e+02 
89.826   8.16000000e+02 
89.790   7.30000000e+02 
89.754   7.06000000e+02 
89.718   7.05000000e+02 
89.682   7.05000000e+02 
89.646   6.65000000e+02 
89.610   6.81000000e+02 
89.574   5.97000000e+02 
89.538   6.55000000e+02 
89.502   6.39000000e+02 
89.466   5.90000000e+02 
89.430   5.38000000e+02 
89.395   5.72000000e+02 
89.359   5.62000000e+02 
89.323   5.50000000e+02 
89.287   6.01000000e+02 
89.251   5.57000000e+02 
89.215   5.12000000e+02 
89.179   5.68000000e+02 
89.143   5.27000000e+02 
89.107   5.53000000e+02 
89.071   5.17000000e+02 
89.035   5.11000000e+02 
88.999   4.79000000e+02 
88.963   4.36000000e+02 
88.927   5.01000000e+02 
88.891   4.93000000e+02 
88.855   4.83000000e+02 
88.820   4.77000000e+02 
88.784   4.76000000e+02 
88.748   4.72000000e+02 
88.712   4.82000000e+02 
88.676   4.74000000e+02 
88.640   4.35000000e+02 
88.604   4.71000000e+02 
88.568   4.41000000e+02 
88.532   4.65000000e+02 
88.496   4.32000000e+02 
88.460   4.58000000e+02 
88.424   4.26000000e+02 
88.388   4.63000000e+02 
88.352   4.56000000e+02 
88.316   4.26000000e+02 
88.280   4.41000000e+02 
88.245   4.56000000e+02 
88.209   4.29000000e+02 
88.173   4.20000000e+02 
88.137   4.02000000e+02 
88.101   4.51000000e+02 
88.065   4.27000000e+02 
88.029   4.32000000e+02 
87.993   4.64000000e+02 
87.957   4.35000000e+02 
87.921   4.06000000e+02 
87.885   4.37000000e+02 
87.849   4.06000000e+02 
87.813   4.29000000e+02 
87.777   4.04000000e+02 
87.741   3.94000000e+02 
87.705   3.98000000e+02 
87.670   4.20000000e+02 
87.634   4.04000000e+02 
87.598   3.92000000e+02 
87.562   4.13000000e+02 
87.526   3.88000000e+02 
87.490   3.93000000e+02 
87.454   3.88000000e+02 
87.418   3.89000000e+02 
87.382   3.99000000e+02 
87.346   3.84000000e+02 
87.310   4.07000000e+02 
87.274   3.96000000e+02 
87.238   3.61000000e+02 
87.202   3.73000000e+02 
87.166   4.24000000e+02 
87.130   3.46000000e+02 
87.095   4.14000000e+02 
87.059   3.87000000e+02 
87.023   3.60000000e+02 

