EXPERIMENT FILE
Version = 2

[ Experiment Parameters ]
Experiment Description= <none> 
Number_of_Regions_in_Experiment= 1 

Original_File_name= C:\alexesca\data\Calibration\23_04_2013_ calibration\0424ang25.xps 
Instrument= HP ESCA West
Date= 04-25-2013
Time=  17:00:41

[ Layer Parameters ]
Layer_Type= XPS

[ Region 1 Parameters ]
Region_Description = Au 4f Dithered 92eV Center 10eV Width
BEcenter(eV) = 92.000000
BEwidth(eV) = 10.000000
BEstep(eV) = 0.035937
Dwell_Time(sec) = 1.000000
N_o_scans = 1  
N_o_Channels = 278  
Scan_mode = 0  (DITHERED)

[ L= 1 R= 1 ]
BEcenter= 92.000  
BEwidth= -9.955  
Excitation= 1486.600
Time_p_channel= 256.000 
Size= 278
96.977   3.89000000e+02 
96.941   3.67000000e+02 
96.905   3.98000000e+02 
96.870   3.71000000e+02 
96.834   3.76000000e+02 
96.798   3.87000000e+02 
96.762   3.69000000e+02 
96.726   4.19000000e+02 
96.690   3.58000000e+02 
96.654   3.72000000e+02 
96.618   3.79000000e+02 
96.582   4.50000000e+02 
96.546   4.45000000e+02 
96.510   4.04000000e+02 
96.474   4.05000000e+02 
96.438   3.74000000e+02 
96.402   4.33000000e+02 
96.366   4.07000000e+02 
96.330   4.41000000e+02 
96.295   5.26000000e+02 
96.259   4.96000000e+02 
96.223   4.72000000e+02 
96.187   4.75000000e+02 
96.151   4.95000000e+02 
96.115   4.93000000e+02 
96.079   5.58000000e+02 
96.043   5.21000000e+02 
96.007   6.31000000e+02 
95.971   5.95000000e+02 
95.935   6.30000000e+02 
95.899   6.24000000e+02 
95.863   6.44000000e+02 
95.827   6.82000000e+02 
95.791   7.15000000e+02 
95.755   6.98000000e+02 
95.720   7.21000000e+02 
95.684   7.66000000e+02 
95.648   8.18000000e+02 
95.612   8.56000000e+02 
95.576   9.11000000e+02 
95.540   9.33000000e+02 
95.504   9.97000000e+02 
95.468   9.67000000e+02 
95.432   1.07100000e+03 
95.396   1.11100000e+03 
95.360   1.12200000e+03 
95.324   1.31300000e+03 
95.288   1.26100000e+03 
95.252   1.37900000e+03 
95.216   1.36900000e+03 
95.180   1.48100000e+03 
95.145   1.53400000e+03 
95.109   1.50600000e+03 
95.073   1.62000000e+03 
95.037   1.66200000e+03 
95.001   1.80900000e+03 
94.965   1.75100000e+03 
94.929   1.85600000e+03 
94.893   1.92900000e+03 
94.857   1.79800000e+03 
94.821   1.86800000e+03 
94.785   2.01100000e+03 
94.749   1.98900000e+03 
94.713   1.84200000e+03 
94.677   1.91500000e+03 
94.641   1.78300000e+03 
94.605   1.75700000e+03 
94.570   1.69600000e+03 
94.534   1.55700000e+03 
94.498   1.56700000e+03 
94.462   1.40500000e+03 
94.426   1.24200000e+03 
94.390   1.21000000e+03 
94.354   1.12600000e+03 
94.318   1.05100000e+03 
94.282   8.92000000e+02 
94.246   8.44000000e+02 
94.210   7.54000000e+02 
94.174   6.88000000e+02 
94.138   6.48000000e+02 
94.102   6.25000000e+02 
94.066   5.88000000e+02 
94.030   5.41000000e+02 
93.995   5.26000000e+02 
93.959   5.03000000e+02 
93.923   4.58000000e+02 
93.887   4.73000000e+02 
93.851   4.59000000e+02 
93.815   4.43000000e+02 
93.779   4.23000000e+02 
93.743   4.21000000e+02 
93.707   3.79000000e+02 
93.671   3.90000000e+02 
93.635   3.68000000e+02 
93.599   3.90000000e+02 
93.563   3.75000000e+02 
93.527   3.57000000e+02 
93.491   3.55000000e+02 
93.455   4.00000000e+02 
93.420   3.53000000e+02 
93.384   3.73000000e+02 
93.348   3.57000000e+02 
93.312   3.52000000e+02 
93.276   3.60000000e+02 
93.240   3.65000000e+02 
93.204   3.50000000e+02 
93.168   4.15000000e+02 
93.132   3.74000000e+02 
93.096   3.60000000e+02 
93.060   3.70000000e+02 
93.024   3.59000000e+02 
92.988   3.75000000e+02 
92.952   3.62000000e+02 
92.916   3.71000000e+02 
92.880   3.86000000e+02 
92.845   3.66000000e+02 
92.809   3.83000000e+02 
92.773   4.34000000e+02 
92.737   4.05000000e+02 
92.701   4.46000000e+02 
92.665   4.57000000e+02 
92.629   4.71000000e+02 
92.593   4.58000000e+02 
92.557   4.72000000e+02 
92.521   4.87000000e+02 
92.485   5.13000000e+02 
92.449   5.08000000e+02 
92.413   5.38000000e+02 
92.377   5.72000000e+02 
92.341   5.85000000e+02 
92.305   5.91000000e+02 
92.270   5.84000000e+02 
92.234   6.39000000e+02 
92.198   7.02000000e+02 
92.162   6.99000000e+02 
92.126   7.66000000e+02 
92.090   7.55000000e+02 
92.054   8.29000000e+02 
92.018   8.28000000e+02 
91.982   8.24000000e+02 
91.946   9.30000000e+02 
91.910   9.79000000e+02 
91.874   1.04700000e+03 
91.838   1.06100000e+03 
91.802   1.17100000e+03 
91.766   1.20000000e+03 
91.730   1.25700000e+03 
91.695   1.35300000e+03 
91.659   1.40000000e+03 
91.623   1.40000000e+03 
91.587   1.55100000e+03 
91.551   1.55300000e+03 
91.515   1.60400000e+03 
91.479   1.69100000e+03 
91.443   1.79800000e+03 
91.407   1.93700000e+03 
91.371   1.99200000e+03 
91.335   2.06000000e+03 
91.299   2.13900000e+03 
91.263   2.23200000e+03 
91.227   2.24100000e+03 
91.191   2.25700000e+03 
91.155   2.38900000e+03 
91.120   2.29700000e+03 
91.084   2.37000000e+03 
91.048   2.39500000e+03 
91.012   2.19100000e+03 
90.976   2.20100000e+03 
90.940   2.18600000e+03 
90.904   2.00900000e+03 
90.868   1.90800000e+03 
90.832   1.76200000e+03 
90.796   1.56700000e+03 
90.760   1.47700000e+03 
90.724   1.33400000e+03 
90.688   1.20300000e+03 
90.652   1.11800000e+03 
90.616   9.73000000e+02 
90.580   8.86000000e+02 
90.545   8.11000000e+02 
90.509   7.06000000e+02 
90.473   6.88000000e+02 
90.437   5.69000000e+02 
90.401   5.28000000e+02 
90.365   4.65000000e+02 
90.329   5.17000000e+02 
90.293   4.24000000e+02 
90.257   4.37000000e+02 
90.221   3.67000000e+02 
90.185   3.09000000e+02 
90.149   3.20000000e+02 
90.113   3.17000000e+02 
90.077   3.22000000e+02 
90.041   2.92000000e+02 
90.005   2.92000000e+02 
89.970   2.65000000e+02 
89.934   2.74000000e+02 
89.898   2.50000000e+02 
89.862   2.25000000e+02 
89.826   2.24000000e+02 
89.790   2.61000000e+02 
89.754   2.42000000e+02 
89.718   2.05000000e+02 
89.682   2.27000000e+02 
89.646   1.90000000e+02 
89.610   2.25000000e+02 
89.574   2.14000000e+02 
89.538   2.37000000e+02 
89.502   1.80000000e+02 
89.466   1.70000000e+02 
89.430   1.92000000e+02 
89.395   1.95000000e+02 
89.359   2.00000000e+02 
89.323   1.75000000e+02 
89.287   1.78000000e+02 
89.251   1.62000000e+02 
89.215   1.75000000e+02 
89.179   1.82000000e+02 
89.143   1.85000000e+02 
89.107   1.89000000e+02 
89.071   1.90000000e+02 
89.035   1.78000000e+02 
88.999   1.75000000e+02 
88.963   1.65000000e+02 
88.927   1.91000000e+02 
88.891   1.64000000e+02 
88.855   1.70000000e+02 
88.820   1.47000000e+02 
88.784   1.71000000e+02 
88.748   1.53000000e+02 
88.712   1.57000000e+02 
88.676   1.85000000e+02 
88.640   1.65000000e+02 
88.604   1.56000000e+02 
88.568   1.67000000e+02 
88.532   1.55000000e+02 
88.496   1.68000000e+02 
88.460   1.47000000e+02 
88.424   1.57000000e+02 
88.388   1.74000000e+02 
88.352   1.70000000e+02 
88.316   1.51000000e+02 
88.280   1.60000000e+02 
88.245   1.63000000e+02 
88.209   1.51000000e+02 
88.173   1.57000000e+02 
88.137   1.52000000e+02 
88.101   1.47000000e+02 
88.065   1.50000000e+02 
88.029   1.48000000e+02 
87.993   1.36000000e+02 
87.957   1.70000000e+02 
87.921   1.23000000e+02 
87.885   1.70000000e+02 
87.849   1.49000000e+02 
87.813   1.21000000e+02 
87.777   1.41000000e+02 
87.741   1.74000000e+02 
87.705   1.43000000e+02 
87.670   1.38000000e+02 
87.634   1.51000000e+02 
87.598   1.49000000e+02 
87.562   1.20000000e+02 
87.526   1.34000000e+02 
87.490   1.33000000e+02 
87.454   1.53000000e+02 
87.418   1.42000000e+02 
87.382   1.26000000e+02 
87.346   1.43000000e+02 
87.310   1.43000000e+02 
87.274   1.40000000e+02 
87.238   1.36000000e+02 
87.202   1.58000000e+02 
87.166   1.38000000e+02 
87.130   1.35000000e+02 
87.095   1.31000000e+02 
87.059   1.60000000e+02 
87.023   1.41000000e+02 

