EXPERIMENT FILE
Version = 2

[ Experiment Parameters ]
Experiment Description= <none> 
Number_of_Regions_in_Experiment= 1 

Original_File_name= C:\alexesca\data\Calibration\23_04_2013_ calibration\0424ang10.xps 
Instrument= HP ESCA West
Date= 04-25-2013
Time=  17:52:47

[ Layer Parameters ]
Layer_Type= XPS

[ Region 1 Parameters ]
Region_Description = Au 4f Dithered 92eV Center 10eV Width
BEcenter(eV) = 92.000000
BEwidth(eV) = 10.000000
BEstep(eV) = 0.035937
Dwell_Time(sec) = 1.000000
N_o_scans = 1  
N_o_Channels = 278  
Scan_mode = 0  (DITHERED)

[ L= 1 R= 1 ]
BEcenter= 92.000  
BEwidth= -9.955  
Excitation= 1486.600
Time_p_channel= 256.000 
Size= 278
96.977   7.49000000e+02 
96.941   7.58000000e+02 
96.905   7.47000000e+02 
96.870   7.86000000e+02 
96.834   7.60000000e+02 
96.798   8.06000000e+02 
96.762   8.14000000e+02 
96.726   7.82000000e+02 
96.690   8.19000000e+02 
96.654   8.00000000e+02 
96.618   8.19000000e+02 
96.582   8.33000000e+02 
96.546   8.66000000e+02 
96.510   8.98000000e+02 
96.474   9.49000000e+02 
96.438   9.39000000e+02 
96.402   9.51000000e+02 
96.366   9.05000000e+02 
96.330   9.70000000e+02 
96.295   1.03300000e+03 
96.259   1.02900000e+03 
96.223   1.08800000e+03 
96.187   1.08800000e+03 
96.151   1.12800000e+03 
96.115   1.18200000e+03 
96.079   1.15400000e+03 
96.043   1.20200000e+03 
96.007   1.24500000e+03 
95.971   1.26200000e+03 
95.935   1.31600000e+03 
95.899   1.36600000e+03 
95.863   1.43000000e+03 
95.827   1.45300000e+03 
95.791   1.60100000e+03 
95.755   1.69400000e+03 
95.720   1.70300000e+03 
95.684   1.80600000e+03 
95.648   1.78500000e+03 
95.612   1.94900000e+03 
95.576   1.89900000e+03 
95.540   1.98500000e+03 
95.504   2.12800000e+03 
95.468   2.14900000e+03 
95.432   2.30900000e+03 
95.396   2.32300000e+03 
95.360   2.37400000e+03 
95.324   2.49700000e+03 
95.288   2.66600000e+03 
95.252   2.75300000e+03 
95.216   2.79700000e+03 
95.180   2.85400000e+03 
95.145   3.09700000e+03 
95.109   3.05700000e+03 
95.073   3.35500000e+03 
95.037   3.31800000e+03 
95.001   3.45100000e+03 
94.965   3.46700000e+03 
94.929   3.60500000e+03 
94.893   3.56700000e+03 
94.857   3.69100000e+03 
94.821   3.69900000e+03 
94.785   3.68800000e+03 
94.749   3.82300000e+03 
94.713   3.69000000e+03 
94.677   3.81200000e+03 
94.641   3.69500000e+03 
94.605   3.53200000e+03 
94.570   3.48800000e+03 
94.534   3.44900000e+03 
94.498   3.33300000e+03 
94.462   3.09700000e+03 
94.426   2.97500000e+03 
94.390   2.72800000e+03 
94.354   2.56700000e+03 
94.318   2.32800000e+03 
94.282   2.21800000e+03 
94.246   1.97900000e+03 
94.210   1.85300000e+03 
94.174   1.70600000e+03 
94.138   1.52600000e+03 
94.102   1.39200000e+03 
94.066   1.30200000e+03 
94.030   1.26400000e+03 
93.995   1.20600000e+03 
93.959   1.08900000e+03 
93.923   1.07800000e+03 
93.887   9.78000000e+02 
93.851   9.38000000e+02 
93.815   9.22000000e+02 
93.779   8.97000000e+02 
93.743   8.69000000e+02 
93.707   8.44000000e+02 
93.671   8.29000000e+02 
93.635   8.25000000e+02 
93.599   8.29000000e+02 
93.563   8.19000000e+02 
93.527   7.88000000e+02 
93.491   8.04000000e+02 
93.455   7.57000000e+02 
93.420   7.49000000e+02 
93.384   7.38000000e+02 
93.348   7.27000000e+02 
93.312   7.19000000e+02 
93.276   7.27000000e+02 
93.240   7.55000000e+02 
93.204   7.46000000e+02 
93.168   7.69000000e+02 
93.132   7.98000000e+02 
93.096   7.37000000e+02 
93.060   7.79000000e+02 
93.024   7.77000000e+02 
92.988   8.24000000e+02 
92.952   8.13000000e+02 
92.916   8.24000000e+02 
92.880   9.04000000e+02 
92.845   9.26000000e+02 
92.809   9.11000000e+02 
92.773   8.91000000e+02 
92.737   9.72000000e+02 
92.701   9.82000000e+02 
92.665   1.04700000e+03 
92.629   1.00500000e+03 
92.593   1.01000000e+03 
92.557   1.09200000e+03 
92.521   1.13900000e+03 
92.485   1.16200000e+03 
92.449   1.19200000e+03 
92.413   1.29300000e+03 
92.377   1.29800000e+03 
92.341   1.36800000e+03 
92.305   1.39700000e+03 
92.270   1.47000000e+03 
92.234   1.50800000e+03 
92.198   1.56100000e+03 
92.162   1.64400000e+03 
92.126   1.76600000e+03 
92.090   1.81100000e+03 
92.054   1.83200000e+03 
92.018   1.91200000e+03 
91.982   1.99700000e+03 
91.946   2.14400000e+03 
91.910   2.17900000e+03 
91.874   2.25900000e+03 
91.838   2.40900000e+03 
91.802   2.53600000e+03 
91.766   2.62400000e+03 
91.730   2.61500000e+03 
91.695   2.79700000e+03 
91.659   2.98000000e+03 
91.623   3.08100000e+03 
91.587   3.16600000e+03 
91.551   3.34700000e+03 
91.515   3.49900000e+03 
91.479   3.62100000e+03 
91.443   3.58800000e+03 
91.407   3.94700000e+03 
91.371   3.97800000e+03 
91.335   4.04800000e+03 
91.299   4.10900000e+03 
91.263   4.27800000e+03 
91.227   4.30600000e+03 
91.191   4.43800000e+03 
91.155   4.48700000e+03 
91.120   4.50600000e+03 
91.084   4.58800000e+03 
91.048   4.58100000e+03 
91.012   4.42900000e+03 
90.976   4.64000000e+03 
90.940   4.51100000e+03 
90.904   4.16100000e+03 
90.868   4.12300000e+03 
90.832   3.88100000e+03 
90.796   3.72100000e+03 
90.760   3.40700000e+03 
90.724   3.14400000e+03 
90.688   2.94700000e+03 
90.652   2.65400000e+03 
90.616   2.32700000e+03 
90.580   2.16200000e+03 
90.545   1.87600000e+03 
90.509   1.65200000e+03 
90.473   1.61500000e+03 
90.437   1.40800000e+03 
90.401   1.26700000e+03 
90.365   1.12400000e+03 
90.329   1.04400000e+03 
90.293   9.47000000e+02 
90.257   8.52000000e+02 
90.221   8.00000000e+02 
90.185   7.46000000e+02 
90.149   7.40000000e+02 
90.113   6.66000000e+02 
90.077   6.07000000e+02 
90.041   6.06000000e+02 
90.005   5.98000000e+02 
89.970   5.43000000e+02 
89.934   5.17000000e+02 
89.898   5.12000000e+02 
89.862   5.08000000e+02 
89.826   4.85000000e+02 
89.790   4.75000000e+02 
89.754   4.62000000e+02 
89.718   4.46000000e+02 
89.682   4.18000000e+02 
89.646   4.14000000e+02 
89.610   4.21000000e+02 
89.574   3.91000000e+02 
89.538   3.90000000e+02 
89.502   3.90000000e+02 
89.466   3.95000000e+02 
89.430   3.61000000e+02 
89.395   3.84000000e+02 
89.359   3.62000000e+02 
89.323   3.49000000e+02 
89.287   3.52000000e+02 
89.251   3.44000000e+02 
89.215   3.06000000e+02 
89.179   3.51000000e+02 
89.143   3.51000000e+02 
89.107   3.31000000e+02 
89.071   3.15000000e+02 
89.035   3.46000000e+02 
88.999   3.13000000e+02 
88.963   3.10000000e+02 
88.927   3.36000000e+02 
88.891   3.04000000e+02 
88.855   3.16000000e+02 
88.820   3.03000000e+02 
88.784   3.12000000e+02 
88.748   3.06000000e+02 
88.712   2.81000000e+02 
88.676   3.10000000e+02 
88.640   2.97000000e+02 
88.604   3.41000000e+02 
88.568   3.03000000e+02 
88.532   2.81000000e+02 
88.496   3.26000000e+02 
88.460   3.05000000e+02 
88.424   3.12000000e+02 
88.388   3.03000000e+02 
88.352   2.76000000e+02 
88.316   2.97000000e+02 
88.280   3.04000000e+02 
88.245   2.77000000e+02 
88.209   3.25000000e+02 
88.173   3.01000000e+02 
88.137   2.71000000e+02 
88.101   2.60000000e+02 
88.065   2.81000000e+02 
88.029   2.70000000e+02 
87.993   2.64000000e+02 
87.957   2.93000000e+02 
87.921   2.80000000e+02 
87.885   2.98000000e+02 
87.849   2.84000000e+02 
87.813   2.69000000e+02 
87.777   2.40000000e+02 
87.741   2.73000000e+02 
87.705   2.59000000e+02 
87.670   2.73000000e+02 
87.634   2.76000000e+02 
87.598   2.73000000e+02 
87.562   2.59000000e+02 
87.526   2.60000000e+02 
87.490   2.59000000e+02 
87.454   2.70000000e+02 
87.418   2.92000000e+02 
87.382   2.72000000e+02 
87.346   2.38000000e+02 
87.310   2.75000000e+02 
87.274   2.64000000e+02 
87.238   2.91000000e+02 
87.202   2.73000000e+02 
87.166   2.75000000e+02 
87.130   3.00000000e+02 
87.095   2.52000000e+02 
87.059   3.06000000e+02 
87.023   2.60000000e+02 

