EXPERIMENT FILE
Version = 2

[ Experiment Parameters ]
Experiment Description= <none> 
Number_of_Regions_in_Experiment= 1 

Original_File_name= C:\alexesca\data\Calibration\23_04_2013_ calibration\0424ang0.xps 
Instrument= HP ESCA West
Date= 04-25-2013
Time=  17:10:38

[ Layer Parameters ]
Layer_Type= XPS

[ Region 1 Parameters ]
Region_Description = Au 4f Dithered 92eV Center 10eV Width
BEcenter(eV) = 92.000000
BEwidth(eV) = 10.000000
BEstep(eV) = 0.035937
Dwell_Time(sec) = 1.000000
N_o_scans = 1  
N_o_Channels = 278  
Scan_mode = 0  (DITHERED)

[ L= 1 R= 1 ]
BEcenter= 92.000  
BEwidth= -9.955  
Excitation= 1486.600
Time_p_channel= 256.000 
Size= 278
96.977   1.08600000e+03 
96.941   1.07500000e+03 
96.905   1.14500000e+03 
96.870   1.14700000e+03 
96.834   1.11900000e+03 
96.798   1.15700000e+03 
96.762   1.21200000e+03 
96.726   1.18700000e+03 
96.690   1.18400000e+03 
96.654   1.24300000e+03 
96.618   1.25300000e+03 
96.582   1.32100000e+03 
96.546   1.37600000e+03 
96.510   1.34200000e+03 
96.474   1.40800000e+03 
96.438   1.42800000e+03 
96.402   1.45300000e+03 
96.366   1.52200000e+03 
96.330   1.54500000e+03 
96.295   1.55800000e+03 
96.259   1.64300000e+03 
96.223   1.72500000e+03 
96.187   1.74900000e+03 
96.151   1.70800000e+03 
96.115   1.84700000e+03 
96.079   1.79000000e+03 
96.043   1.88800000e+03 
96.007   1.89900000e+03 
95.971   2.06300000e+03 
95.935   2.11100000e+03 
95.899   2.14000000e+03 
95.863   2.27000000e+03 
95.827   2.31400000e+03 
95.791   2.46200000e+03 
95.755   2.44000000e+03 
95.720   2.53000000e+03 
95.684   2.57900000e+03 
95.648   2.71300000e+03 
95.612   2.77400000e+03 
95.576   2.96800000e+03 
95.540   3.04200000e+03 
95.504   3.07600000e+03 
95.468   3.10900000e+03 
95.432   3.21800000e+03 
95.396   3.30700000e+03 
95.360   3.56200000e+03 
95.324   3.56000000e+03 
95.288   3.78800000e+03 
95.252   3.75500000e+03 
95.216   4.02300000e+03 
95.180   4.15200000e+03 
95.145   4.19500000e+03 
95.109   4.24800000e+03 
95.073   4.35900000e+03 
95.037   4.52600000e+03 
95.001   4.60000000e+03 
94.965   4.76000000e+03 
94.929   4.76700000e+03 
94.893   4.69100000e+03 
94.857   4.81700000e+03 
94.821   5.00000000e+03 
94.785   4.99200000e+03 
94.749   4.91800000e+03 
94.713   5.06500000e+03 
94.677   4.86300000e+03 
94.641   4.79000000e+03 
94.605   4.81500000e+03 
94.570   4.54000000e+03 
94.534   4.45900000e+03 
94.498   4.37300000e+03 
94.462   4.15600000e+03 
94.426   4.08800000e+03 
94.390   3.94200000e+03 
94.354   3.57600000e+03 
94.318   3.40600000e+03 
94.282   3.25200000e+03 
94.246   2.92500000e+03 
94.210   2.78400000e+03 
94.174   2.40500000e+03 
94.138   2.37000000e+03 
94.102   2.20600000e+03 
94.066   2.05400000e+03 
94.030   1.83700000e+03 
93.995   1.72600000e+03 
93.959   1.64800000e+03 
93.923   1.45100000e+03 
93.887   1.44900000e+03 
93.851   1.37900000e+03 
93.815   1.33500000e+03 
93.779   1.26700000e+03 
93.743   1.22000000e+03 
93.707   1.22600000e+03 
93.671   1.16800000e+03 
93.635   1.14600000e+03 
93.599   1.07700000e+03 
93.563   1.15800000e+03 
93.527   1.15500000e+03 
93.491   1.15700000e+03 
93.455   1.07500000e+03 
93.420   1.11400000e+03 
93.384   1.09600000e+03 
93.348   1.08200000e+03 
93.312   1.06600000e+03 
93.276   1.07500000e+03 
93.240   1.13200000e+03 
93.204   1.15200000e+03 
93.168   1.12900000e+03 
93.132   1.13100000e+03 
93.096   1.17300000e+03 
93.060   1.18900000e+03 
93.024   1.19700000e+03 
92.988   1.23200000e+03 
92.952   1.29000000e+03 
92.916   1.35200000e+03 
92.880   1.31700000e+03 
92.845   1.30100000e+03 
92.809   1.38500000e+03 
92.773   1.46100000e+03 
92.737   1.44900000e+03 
92.701   1.50600000e+03 
92.665   1.57600000e+03 
92.629   1.61200000e+03 
92.593   1.62900000e+03 
92.557   1.69700000e+03 
92.521   1.75700000e+03 
92.485   1.80800000e+03 
92.449   1.91800000e+03 
92.413   1.93100000e+03 
92.377   1.99100000e+03 
92.341   2.15600000e+03 
92.305   2.15300000e+03 
92.270   2.15400000e+03 
92.234   2.28400000e+03 
92.198   2.38200000e+03 
92.162   2.56100000e+03 
92.126   2.63100000e+03 
92.090   2.67300000e+03 
92.054   2.85400000e+03 
92.018   2.92600000e+03 
91.982   3.05500000e+03 
91.946   3.18200000e+03 
91.910   3.32300000e+03 
91.874   3.48700000e+03 
91.838   3.50700000e+03 
91.802   3.76700000e+03 
91.766   3.78500000e+03 
91.730   3.83700000e+03 
91.695   4.11500000e+03 
91.659   4.15900000e+03 
91.623   4.27700000e+03 
91.587   4.49400000e+03 
91.551   4.49100000e+03 
91.515   4.78300000e+03 
91.479   4.87200000e+03 
91.443   5.05400000e+03 
91.407   5.05500000e+03 
91.371   5.29700000e+03 
91.335   5.46900000e+03 
91.299   5.58700000e+03 
91.263   5.54300000e+03 
91.227   5.60800000e+03 
91.191   5.67400000e+03 
91.155   6.00600000e+03 
91.120   5.96400000e+03 
91.084   6.04000000e+03 
91.048   5.99000000e+03 
91.012   5.92500000e+03 
90.976   5.81600000e+03 
90.940   5.73000000e+03 
90.904   5.57500000e+03 
90.868   5.46200000e+03 
90.832   5.25000000e+03 
90.796   5.00900000e+03 
90.760   4.72500000e+03 
90.724   4.44000000e+03 
90.688   4.20200000e+03 
90.652   3.90200000e+03 
90.616   3.62200000e+03 
90.580   3.23000000e+03 
90.545   2.99200000e+03 
90.509   2.65400000e+03 
90.473   2.39200000e+03 
90.437   2.25500000e+03 
90.401   1.98400000e+03 
90.365   1.82900000e+03 
90.329   1.65600000e+03 
90.293   1.49900000e+03 
90.257   1.39600000e+03 
90.221   1.27500000e+03 
90.185   1.12900000e+03 
90.149   1.06400000e+03 
90.113   9.60000000e+02 
90.077   9.73000000e+02 
90.041   8.82000000e+02 
90.005   8.58000000e+02 
89.970   7.98000000e+02 
89.934   7.60000000e+02 
89.898   7.40000000e+02 
89.862   6.31000000e+02 
89.826   6.79000000e+02 
89.790   5.96000000e+02 
89.754   6.19000000e+02 
89.718   6.22000000e+02 
89.682   6.08000000e+02 
89.646   5.88000000e+02 
89.610   5.89000000e+02 
89.574   5.45000000e+02 
89.538   5.63000000e+02 
89.502   5.27000000e+02 
89.466   5.29000000e+02 
89.430   5.08000000e+02 
89.395   5.21000000e+02 
89.359   4.70000000e+02 
89.323   4.78000000e+02 
89.287   4.87000000e+02 
89.251   4.53000000e+02 
89.215   4.86000000e+02 
89.179   4.72000000e+02 
89.143   4.41000000e+02 
89.107   4.38000000e+02 
89.071   4.33000000e+02 
89.035   4.02000000e+02 
88.999   4.38000000e+02 
88.963   4.25000000e+02 
88.927   4.36000000e+02 
88.891   4.58000000e+02 
88.855   4.49000000e+02 
88.820   4.09000000e+02 
88.784   3.95000000e+02 
88.748   4.06000000e+02 
88.712   4.13000000e+02 
88.676   3.66000000e+02 
88.640   4.20000000e+02 
88.604   4.18000000e+02 
88.568   4.29000000e+02 
88.532   3.71000000e+02 
88.496   3.89000000e+02 
88.460   3.97000000e+02 
88.424   3.72000000e+02 
88.388   3.75000000e+02 
88.352   3.78000000e+02 
88.316   3.75000000e+02 
88.280   3.49000000e+02 
88.245   3.60000000e+02 
88.209   3.64000000e+02 
88.173   3.69000000e+02 
88.137   3.97000000e+02 
88.101   3.85000000e+02 
88.065   3.73000000e+02 
88.029   3.53000000e+02 
87.993   3.33000000e+02 
87.957   3.34000000e+02 
87.921   3.59000000e+02 
87.885   3.78000000e+02 
87.849   3.87000000e+02 
87.813   3.38000000e+02 
87.777   3.87000000e+02 
87.741   3.80000000e+02 
87.705   3.53000000e+02 
87.670   3.50000000e+02 
87.634   3.20000000e+02 
87.598   3.53000000e+02 
87.562   3.38000000e+02 
87.526   3.91000000e+02 
87.490   3.73000000e+02 
87.454   3.30000000e+02 
87.418   3.48000000e+02 
87.382   3.61000000e+02 
87.346   3.10000000e+02 
87.310   3.95000000e+02 
87.274   3.83000000e+02 
87.238   3.41000000e+02 
87.202   3.89000000e+02 
87.166   3.64000000e+02 
87.130   3.37000000e+02 
87.095   3.53000000e+02 
87.059   3.55000000e+02 
87.023   3.08000000e+02 

