EXPERIMENT FILE
Version = 2

[ Experiment Parameters ]
Experiment Description= <none> 
Number_of_Regions_in_Experiment= 1 

Original_File_name= C:\alexesca\data\Calibration\23_04_2013_ calibration\0424ang5.xps 
Instrument= HP ESCA West
Date= 04-25-2013
Time=  18:04:39

[ Layer Parameters ]
Layer_Type= XPS

[ Region 1 Parameters ]
Region_Description = Au 4f Dithered 92eV Center 10eV Width
BEcenter(eV) = 92.000000
BEwidth(eV) = 10.000000
BEstep(eV) = 0.035937
Dwell_Time(sec) = 1.000000
N_o_scans = 1  
N_o_Channels = 278  
Scan_mode = 0  (DITHERED)

[ L= 1 R= 1 ]
BEcenter= 92.000  
BEwidth= -9.955  
Excitation= 1486.600
Time_p_channel= 256.000 
Size= 278
96.977   9.15000000e+02 
96.941   9.17000000e+02 
96.905   8.91000000e+02 
96.870   9.23000000e+02 
96.834   9.13000000e+02 
96.798   1.01100000e+03 
96.762   9.98000000e+02 
96.726   1.04500000e+03 
96.690   9.90000000e+02 
96.654   1.06300000e+03 
96.618   1.07600000e+03 
96.582   1.06100000e+03 
96.546   1.10000000e+03 
96.510   1.11800000e+03 
96.474   1.10900000e+03 
96.438   1.19200000e+03 
96.402   1.18300000e+03 
96.366   1.22400000e+03 
96.330   1.20400000e+03 
96.295   1.27400000e+03 
96.259   1.26800000e+03 
96.223   1.35500000e+03 
96.187   1.37700000e+03 
96.151   1.39200000e+03 
96.115   1.41600000e+03 
96.079   1.51100000e+03 
96.043   1.58200000e+03 
96.007   1.60700000e+03 
95.971   1.66900000e+03 
95.935   1.71300000e+03 
95.899   1.74800000e+03 
95.863   1.78900000e+03 
95.827   1.84400000e+03 
95.791   1.91700000e+03 
95.755   1.99700000e+03 
95.720   2.12500000e+03 
95.684   2.13900000e+03 
95.648   2.17300000e+03 
95.612   2.34900000e+03 
95.576   2.42900000e+03 
95.540   2.50800000e+03 
95.504   2.56600000e+03 
95.468   2.69100000e+03 
95.432   2.74100000e+03 
95.396   2.89100000e+03 
95.360   2.89900000e+03 
95.324   2.99800000e+03 
95.288   3.11500000e+03 
95.252   3.25300000e+03 
95.216   3.42600000e+03 
95.180   3.41600000e+03 
95.145   3.54600000e+03 
95.109   3.61800000e+03 
95.073   3.81600000e+03 
95.037   3.90600000e+03 
95.001   3.93100000e+03 
94.965   4.16700000e+03 
94.929   4.15200000e+03 
94.893   4.29800000e+03 
94.857   4.39300000e+03 
94.821   4.27100000e+03 
94.785   4.43500000e+03 
94.749   4.47700000e+03 
94.713   4.32000000e+03 
94.677   4.39200000e+03 
94.641   4.36100000e+03 
94.605   4.46200000e+03 
94.570   4.20200000e+03 
94.534   4.16100000e+03 
94.498   3.96000000e+03 
94.462   3.81000000e+03 
94.426   3.53800000e+03 
94.390   3.43700000e+03 
94.354   3.19800000e+03 
94.318   3.10400000e+03 
94.282   2.71700000e+03 
94.246   2.63900000e+03 
94.210   2.41300000e+03 
94.174   2.17200000e+03 
94.138   2.01200000e+03 
94.102   1.86300000e+03 
94.066   1.66700000e+03 
94.030   1.50600000e+03 
93.995   1.47700000e+03 
93.959   1.35800000e+03 
93.923   1.36200000e+03 
93.887   1.19700000e+03 
93.851   1.16000000e+03 
93.815   1.10600000e+03 
93.779   1.06100000e+03 
93.743   1.05800000e+03 
93.707   1.03000000e+03 
93.671   9.97000000e+02 
93.635   9.77000000e+02 
93.599   9.81000000e+02 
93.563   9.61000000e+02 
93.527   9.71000000e+02 
93.491   8.78000000e+02 
93.455   9.71000000e+02 
93.420   8.77000000e+02 
93.384   9.21000000e+02 
93.348   8.84000000e+02 
93.312   9.68000000e+02 
93.276   9.92000000e+02 
93.240   8.97000000e+02 
93.204   9.09000000e+02 
93.168   9.70000000e+02 
93.132   9.63000000e+02 
93.096   9.79000000e+02 
93.060   1.04600000e+03 
93.024   9.59000000e+02 
92.988   9.79000000e+02 
92.952   1.02700000e+03 
92.916   1.02300000e+03 
92.880   1.04400000e+03 
92.845   1.10900000e+03 
92.809   1.10600000e+03 
92.773   1.09600000e+03 
92.737   1.24100000e+03 
92.701   1.24400000e+03 
92.665   1.24500000e+03 
92.629   1.34500000e+03 
92.593   1.37300000e+03 
92.557   1.35700000e+03 
92.521   1.43500000e+03 
92.485   1.45500000e+03 
92.449   1.45300000e+03 
92.413   1.55200000e+03 
92.377   1.65700000e+03 
92.341   1.71100000e+03 
92.305   1.68300000e+03 
92.270   1.71700000e+03 
92.234   1.85400000e+03 
92.198   2.01100000e+03 
92.162   2.04600000e+03 
92.126   2.08300000e+03 
92.090   2.19100000e+03 
92.054   2.24900000e+03 
92.018   2.42600000e+03 
91.982   2.46800000e+03 
91.946   2.62400000e+03 
91.910   2.57900000e+03 
91.874   2.81400000e+03 
91.838   2.82900000e+03 
91.802   3.04100000e+03 
91.766   3.14200000e+03 
91.730   3.23700000e+03 
91.695   3.39900000e+03 
91.659   3.52800000e+03 
91.623   3.69000000e+03 
91.587   3.88300000e+03 
91.551   3.91000000e+03 
91.515   4.13600000e+03 
91.479   4.25600000e+03 
91.443   4.28600000e+03 
91.407   4.63500000e+03 
91.371   4.57300000e+03 
91.335   4.72100000e+03 
91.299   4.82100000e+03 
91.263   5.00400000e+03 
91.227   5.20100000e+03 
91.191   5.06000000e+03 
91.155   5.35300000e+03 
91.120   5.32600000e+03 
91.084   5.27300000e+03 
91.048   5.36800000e+03 
91.012   5.28300000e+03 
90.976   5.32800000e+03 
90.940   5.26300000e+03 
90.904   5.05200000e+03 
90.868   4.92500000e+03 
90.832   4.67500000e+03 
90.796   4.43600000e+03 
90.760   4.31500000e+03 
90.724   3.95800000e+03 
90.688   3.79800000e+03 
90.652   3.51600000e+03 
90.616   3.08000000e+03 
90.580   2.83200000e+03 
90.545   2.64200000e+03 
90.509   2.31000000e+03 
90.473   2.07700000e+03 
90.437   1.89300000e+03 
90.401   1.71000000e+03 
90.365   1.51400000e+03 
90.329   1.36500000e+03 
90.293   1.28900000e+03 
90.257   1.16100000e+03 
90.221   1.10000000e+03 
90.185   9.64000000e+02 
90.149   9.03000000e+02 
90.113   8.63000000e+02 
90.077   7.92000000e+02 
90.041   7.70000000e+02 
90.005   7.33000000e+02 
89.970   6.89000000e+02 
89.934   6.37000000e+02 
89.898   6.50000000e+02 
89.862   6.18000000e+02 
89.826   5.69000000e+02 
89.790   5.83000000e+02 
89.754   5.66000000e+02 
89.718   5.10000000e+02 
89.682   5.32000000e+02 
89.646   5.30000000e+02 
89.610   4.81000000e+02 
89.574   4.91000000e+02 
89.538   4.50000000e+02 
89.502   4.52000000e+02 
89.466   4.68000000e+02 
89.430   4.93000000e+02 
89.395   4.23000000e+02 
89.359   4.98000000e+02 
89.323   3.93000000e+02 
89.287   4.27000000e+02 
89.251   4.01000000e+02 
89.215   3.67000000e+02 
89.179   4.32000000e+02 
89.143   4.48000000e+02 
89.107   4.26000000e+02 
89.071   3.62000000e+02 
89.035   3.69000000e+02 
88.999   3.87000000e+02 
88.963   3.45000000e+02 
88.927   3.56000000e+02 
88.891   3.62000000e+02 
88.855   3.76000000e+02 
88.820   3.97000000e+02 
88.784   3.50000000e+02 
88.748   3.53000000e+02 
88.712   3.65000000e+02 
88.676   4.01000000e+02 
88.640   3.54000000e+02 
88.604   3.47000000e+02 
88.568   3.78000000e+02 
88.532   3.51000000e+02 
88.496   3.32000000e+02 
88.460   3.27000000e+02 
88.424   3.45000000e+02 
88.388   3.60000000e+02 
88.352   3.48000000e+02 
88.316   3.72000000e+02 
88.280   3.11000000e+02 
88.245   3.78000000e+02 
88.209   3.51000000e+02 
88.173   3.34000000e+02 
88.137   3.12000000e+02 
88.101   3.13000000e+02 
88.065   3.27000000e+02 
88.029   3.34000000e+02 
87.993   3.41000000e+02 
87.957   3.36000000e+02 
87.921   3.02000000e+02 
87.885   3.01000000e+02 
87.849   3.08000000e+02 
87.813   3.18000000e+02 
87.777   3.02000000e+02 
87.741   2.99000000e+02 
87.705   3.16000000e+02 
87.670   3.21000000e+02 
87.634   3.35000000e+02 
87.598   3.18000000e+02 
87.562   2.98000000e+02 
87.526   3.42000000e+02 
87.490   2.86000000e+02 
87.454   3.03000000e+02 
87.418   3.23000000e+02 
87.382   2.91000000e+02 
87.346   3.22000000e+02 
87.310   3.15000000e+02 
87.274   3.01000000e+02 
87.238   2.85000000e+02 
87.202   3.23000000e+02 
87.166   2.86000000e+02 
87.130   2.96000000e+02 
87.095   3.33000000e+02 
87.059   2.90000000e+02 
87.023   3.06000000e+02 

