EXPERIMENT FILE
Version = 2

[ Experiment Parameters ]
Experiment Description= <none> 
Number_of_Regions_in_Experiment= 1 

Original_File_name= C:\alexesca\data\Calibration\23_04_2013_ calibration\0424ang15.xps 
Instrument= HP ESCA West
Date= 04-25-2013
Time=  17:42:20

[ Layer Parameters ]
Layer_Type= XPS

[ Region 1 Parameters ]
Region_Description = Au 4f Dithered 92eV Center 10eV Width
BEcenter(eV) = 92.000000
BEwidth(eV) = 10.000000
BEstep(eV) = 0.035937
Dwell_Time(sec) = 1.000000
N_o_scans = 1  
N_o_Channels = 278  
Scan_mode = 0  (DITHERED)

[ L= 1 R= 1 ]
BEcenter= 92.000  
BEwidth= -9.955  
Excitation= 1486.600
Time_p_channel= 256.000 
Size= 278
96.977   6.63000000e+02 
96.941   6.27000000e+02 
96.905   6.75000000e+02 
96.870   6.26000000e+02 
96.834   6.15000000e+02 
96.798   6.93000000e+02 
96.762   6.48000000e+02 
96.726   6.77000000e+02 
96.690   6.77000000e+02 
96.654   7.41000000e+02 
96.618   7.25000000e+02 
96.582   6.70000000e+02 
96.546   7.15000000e+02 
96.510   6.79000000e+02 
96.474   8.02000000e+02 
96.438   7.90000000e+02 
96.402   7.63000000e+02 
96.366   7.38000000e+02 
96.330   8.39000000e+02 
96.295   7.96000000e+02 
96.259   8.17000000e+02 
96.223   8.20000000e+02 
96.187   8.68000000e+02 
96.151   8.97000000e+02 
96.115   9.47000000e+02 
96.079   9.25000000e+02 
96.043   1.02700000e+03 
96.007   1.03800000e+03 
95.971   1.01900000e+03 
95.935   1.07300000e+03 
95.899   1.12400000e+03 
95.863   1.15400000e+03 
95.827   1.16600000e+03 
95.791   1.29200000e+03 
95.755   1.29400000e+03 
95.720   1.37800000e+03 
95.684   1.33000000e+03 
95.648   1.44400000e+03 
95.612   1.46800000e+03 
95.576   1.57000000e+03 
95.540   1.63300000e+03 
95.504   1.74400000e+03 
95.468   1.74300000e+03 
95.432   1.79900000e+03 
95.396   1.97100000e+03 
95.360   1.99500000e+03 
95.324   2.03500000e+03 
95.288   2.14500000e+03 
95.252   2.23500000e+03 
95.216   2.28500000e+03 
95.180   2.39400000e+03 
95.145   2.49000000e+03 
95.109   2.58500000e+03 
95.073   2.66100000e+03 
95.037   2.73600000e+03 
95.001   2.96400000e+03 
94.965   2.98800000e+03 
94.929   3.01700000e+03 
94.893   3.06000000e+03 
94.857   3.07900000e+03 
94.821   3.27200000e+03 
94.785   3.07200000e+03 
94.749   3.17000000e+03 
94.713   3.22100000e+03 
94.677   3.14400000e+03 
94.641   3.04900000e+03 
94.605   3.01500000e+03 
94.570   2.84600000e+03 
94.534   2.73200000e+03 
94.498   2.73700000e+03 
94.462   2.55200000e+03 
94.426   2.45200000e+03 
94.390   2.23700000e+03 
94.354   2.03600000e+03 
94.318   1.85000000e+03 
94.282   1.70900000e+03 
94.246   1.57900000e+03 
94.210   1.44200000e+03 
94.174   1.37100000e+03 
94.138   1.24400000e+03 
94.102   1.06500000e+03 
94.066   1.10700000e+03 
94.030   9.36000000e+02 
93.995   9.32000000e+02 
93.959   8.61000000e+02 
93.923   8.71000000e+02 
93.887   8.18000000e+02 
93.851   7.65000000e+02 
93.815   7.85000000e+02 
93.779   7.53000000e+02 
93.743   7.11000000e+02 
93.707   6.55000000e+02 
93.671   6.56000000e+02 
93.635   6.34000000e+02 
93.599   5.73000000e+02 
93.563   6.04000000e+02 
93.527   6.23000000e+02 
93.491   6.51000000e+02 
93.455   5.81000000e+02 
93.420   6.55000000e+02 
93.384   6.28000000e+02 
93.348   5.74000000e+02 
93.312   6.23000000e+02 
93.276   6.38000000e+02 
93.240   6.45000000e+02 
93.204   6.25000000e+02 
93.168   6.34000000e+02 
93.132   5.93000000e+02 
93.096   6.10000000e+02 
93.060   6.42000000e+02 
93.024   5.98000000e+02 
92.988   6.45000000e+02 
92.952   6.65000000e+02 
92.916   6.37000000e+02 
92.880   6.97000000e+02 
92.845   6.92000000e+02 
92.809   6.83000000e+02 
92.773   7.21000000e+02 
92.737   7.24000000e+02 
92.701   7.50000000e+02 
92.665   7.56000000e+02 
92.629   7.77000000e+02 
92.593   8.18000000e+02 
92.557   8.33000000e+02 
92.521   9.09000000e+02 
92.485   9.66000000e+02 
92.449   9.32000000e+02 
92.413   9.62000000e+02 
92.377   9.63000000e+02 
92.341   1.09700000e+03 
92.305   1.06200000e+03 
92.270   1.12100000e+03 
92.234   1.21000000e+03 
92.198   1.19100000e+03 
92.162   1.27900000e+03 
92.126   1.33200000e+03 
92.090   1.36400000e+03 
92.054   1.40400000e+03 
92.018   1.57900000e+03 
91.982   1.53500000e+03 
91.946   1.64100000e+03 
91.910   1.73500000e+03 
91.874   1.84100000e+03 
91.838   1.87000000e+03 
91.802   1.99300000e+03 
91.766   2.16100000e+03 
91.730   2.18400000e+03 
91.695   2.33400000e+03 
91.659   2.39700000e+03 
91.623   2.42000000e+03 
91.587   2.66000000e+03 
91.551   2.62600000e+03 
91.515   2.87600000e+03 
91.479   2.91900000e+03 
91.443   2.87900000e+03 
91.407   3.16800000e+03 
91.371   3.28700000e+03 
91.335   3.43800000e+03 
91.299   3.48200000e+03 
91.263   3.61000000e+03 
91.227   3.69900000e+03 
91.191   3.69100000e+03 
91.155   3.82100000e+03 
91.120   3.88600000e+03 
91.084   3.75500000e+03 
91.048   3.90100000e+03 
91.012   3.70000000e+03 
90.976   3.72100000e+03 
90.940   3.60600000e+03 
90.904   3.54100000e+03 
90.868   3.44800000e+03 
90.832   3.24800000e+03 
90.796   2.99300000e+03 
90.760   2.77700000e+03 
90.724   2.51800000e+03 
90.688   2.31000000e+03 
90.652   2.16600000e+03 
90.616   1.85400000e+03 
90.580   1.67200000e+03 
90.545   1.53600000e+03 
90.509   1.35500000e+03 
90.473   1.23800000e+03 
90.437   1.11300000e+03 
90.401   9.91000000e+02 
90.365   8.46000000e+02 
90.329   8.52000000e+02 
90.293   7.85000000e+02 
90.257   7.57000000e+02 
90.221   6.72000000e+02 
90.185   5.85000000e+02 
90.149   5.39000000e+02 
90.113   5.59000000e+02 
90.077   5.27000000e+02 
90.041   5.02000000e+02 
90.005   4.58000000e+02 
89.970   4.53000000e+02 
89.934   4.28000000e+02 
89.898   4.39000000e+02 
89.862   4.18000000e+02 
89.826   4.15000000e+02 
89.790   4.02000000e+02 
89.754   3.90000000e+02 
89.718   3.62000000e+02 
89.682   3.86000000e+02 
89.646   3.46000000e+02 
89.610   3.22000000e+02 
89.574   3.21000000e+02 
89.538   3.05000000e+02 
89.502   3.45000000e+02 
89.466   3.37000000e+02 
89.430   3.30000000e+02 
89.395   3.55000000e+02 
89.359   2.79000000e+02 
89.323   3.07000000e+02 
89.287   2.61000000e+02 
89.251   2.91000000e+02 
89.215   3.12000000e+02 
89.179   3.01000000e+02 
89.143   2.86000000e+02 
89.107   2.90000000e+02 
89.071   3.10000000e+02 
89.035   2.75000000e+02 
88.999   2.50000000e+02 
88.963   2.97000000e+02 
88.927   2.31000000e+02 
88.891   2.68000000e+02 
88.855   2.56000000e+02 
88.820   2.34000000e+02 
88.784   2.67000000e+02 
88.748   2.73000000e+02 
88.712   2.68000000e+02 
88.676   2.62000000e+02 
88.640   2.50000000e+02 
88.604   2.54000000e+02 
88.568   2.45000000e+02 
88.532   2.82000000e+02 
88.496   2.13000000e+02 
88.460   2.53000000e+02 
88.424   2.80000000e+02 
88.388   2.57000000e+02 
88.352   2.14000000e+02 
88.316   2.26000000e+02 
88.280   2.20000000e+02 
88.245   2.71000000e+02 
88.209   2.38000000e+02 
88.173   2.16000000e+02 
88.137   2.36000000e+02 
88.101   2.29000000e+02 
88.065   2.71000000e+02 
88.029   2.22000000e+02 
87.993   2.34000000e+02 
87.957   2.48000000e+02 
87.921   2.50000000e+02 
87.885   2.27000000e+02 
87.849   2.31000000e+02 
87.813   2.53000000e+02 
87.777   2.41000000e+02 
87.741   2.46000000e+02 
87.705   2.31000000e+02 
87.670   2.04000000e+02 
87.634   2.37000000e+02 
87.598   2.16000000e+02 
87.562   2.05000000e+02 
87.526   2.19000000e+02 
87.490   2.40000000e+02 
87.454   2.23000000e+02 
87.418   2.27000000e+02 
87.382   2.00000000e+02 
87.346   2.04000000e+02 
87.310   2.08000000e+02 
87.274   2.12000000e+02 
87.238   2.19000000e+02 
87.202   2.21000000e+02 
87.166   2.13000000e+02 
87.130   2.32000000e+02 
87.095   2.20000000e+02 
87.059   2.33000000e+02 
87.023   2.26000000e+02 

